# Time [s]: 0.0296966
# Columns: pos [m], vel [m/s], acc [m/s^2], mass [kg], dens [kg/m^3], pres [Pa], ene [J/kg], sml [m], id, neighbor, alpha, gradh, ...additional?
# Additional arrays: grad_velocity_0(vector) grad_pressure(vector) grad_density(vector) 
-3.97151 5.09839 762.072 0.02 0.918034 8916.95 14569.7 0.348571 0 33 1 2.48207e-314 0 0 0 
-3.95314 4.45774 624.568 0.02 0.915854 8875.56 14536.6 0.349401 1 33 1 2.48207e-314 0 0 0 
-3.93389 4.09513 530.897 0.02 0.914332 8834.72 14493.8 0.349982 2 33 1 2.48207e-314 0 0 0 
-3.91393 3.96192 478.652 0.02 0.913365 8795.12 14444 0.350353 3 32 1 2.48207e-314 0 0 0 
-3.89336 4.02297 463.493 0.02 0.912852 8757.33 14390 0.35055 4 32 1 2.48207e-314 0 0 0 
-3.87222 4.26091 483.813 0.02 0.912679 8721.73 14334.2 0.350616 5 32 1 2.48207e-314 0 0 0 
-3.85052 4.68065 544.519 0.02 0.912697 8688.29 14278.9 0.350609 6 32 1 2.48207e-314 0 0 0 
-3.8282 5.31503 660.162 0.02 0.912682 8656.24 14226.5 0.350615 7 32 1 2.48207e-314 0 0 0 
-3.8052 6.17168 825.793 0.02 0.912297 8623.95 14179.3 0.350763 8 32 1 2.48207e-314 0 0 0 
-3.78276 6.79474 925.589 0.02 0.91151 8592.91 14140.5 0.351066 9 32 1 2.48207e-314 0 0 0 
-3.76068 7.25264 969.686 0.02 0.910594 8564.31 14107.6 0.351419 10 32 1 2.48207e-314 0 0 0 
-3.73875 7.64194 995.879 0.02 0.909663 8538.17 14078.9 0.351779 11 32 1 2.48207e-314 0 0 0 
-3.71688 8.01258 1021.17 0.02 0.908739 8513.97 14053.3 0.352136 12 31 1 2.48207e-314 0 0 0 
-3.69499 8.38686 1051.84 0.02 0.907803 8491.04 14029.9 0.352499 13 31 1 2.48207e-314 0 0 0 
-3.67308 8.76822 1087.62 0.02 0.906826 8468.72 14008.1 0.352879 14 31 1 2.48207e-314 0 0 0 
-3.65116 9.14487 1123.55 0.02 0.905787 8446.56 13987.4 0.353284 15 31 1 2.48207e-314 0 0 0 
-3.62928 9.50512 1158.03 0.02 0.9047 8424.36 13967.4 0.353708 16 32 1 2.48207e-314 0 0 0 
-3.60721 9.91851 1202.98 0.02 0.903546 8401.53 13947.4 0.35416 17 32 1 2.48207e-314 0 0 0 
-3.58503 10.3613 1254.36 0.02 0.902269 8377.74 13927.5 0.354661 18 32 1 2.48207e-314 0 0 0 
-3.56278 10.808 1303.92 0.02 0.900855 8352.91 13908.1 0.355218 19 32 1 2.48207e-314 0 0 0 
-3.54051 11.2465 1348.4 0.02 0.899311 8327.13 13889 0.355828 20 32 1 2.48207e-314 0 0 0 
-3.51821 11.6722 1387.2 0.02 0.897661 8300.54 13870.1 0.356482 21 32 1 2.48207e-314 0 0 0 
-3.49591 12.0842 1420.75 0.02 0.895925 8273.26 13851.3 0.357173 22 32 1 2.48207e-314 0 0 0 
-3.4736 12.4843 1450.05 0.02 0.894127 8245.39 13832.4 0.357891 23 32 1 2.48207e-314 0 0 0 
-3.45125 12.878 1477.06 0.02 0.892282 8216.98 13813.2 0.358631 24 32 1 2.48207e-314 0 0 0 
-3.42886 13.2752 1505.1 0.02 0.890395 8187.99 13793.7 0.359391 25 32 1 2.48207e-314 0 0 0 
-3.4064 13.6792 1534.94 0.02 0.888462 8158.33 13773.6 0.360173 26 32 1 2.48207e-314 0 0 0 
-3.38389 14.0894 1565.88 0.02 0.886477 8127.95 13753.1 0.360979 27 32 1 2.48207e-314 0 0 0 
-3.36131 14.5037 1596.81 0.02 0.884437 8096.83 13732 0.361812 28 32 1 2.48207e-314 0 0 0 
-3.33868 14.92 1626.85 0.02 0.882342 8064.99 13710.5 0.362671 29 32 1 2.48207e-314 0 0 0 
-3.31599 15.3369 1655.42 0.02 0.880194 8032.46 13688.5 0.363556 30 32 1 2.48207e-314 0 0 0 
-3.29324 15.7536 1682.36 0.02 0.877997 7999.29 13666.1 0.364466 31 32 1 2.48207e-314 0 0 0 
-3.27043 16.1699 1707.69 0.02 0.875755 7965.55 13643.3 0.365399 32 32 1 2.48207e-314 0 0 0 
-3.24757 16.5856 1731.53 0.02 0.873473 7931.26 13620.1 0.366354 33 32 1 2.48207e-314 0 0 0 
-3.22466 17.0012 1754.12 0.02 0.871153 7896.47 13596.5 0.367329 34 32 1 2.48207e-314 0 0 0 
-3.20168 17.4174 1775.75 0.02 0.868798 7861.21 13572.5 0.368325 35 32 1 2.48207e-314 0 0 0 
-3.17864 17.8346 1796.6 0.02 0.86641 7825.5 13548.1 0.36934 36 32 1 2.48207e-314 0 0 0 
-3.15553 18.2534 1816.75 0.02 0.863991 7789.36 13523.3 0.370374 37 32 1 2.48207e-314 0 0 0 
-3.13236 18.6737 1836.18 0.02 0.861539 7752.79 13498.1 0.371428 38 32 1 2.48207e-314 0 0 0 
-3.10912 19.0955 1854.83 0.02 0.859057 7715.82 13472.5 0.372501 39 32 1 2.48207e-314 0 0 0 
-3.08581 19.5188 1872.6 0.02 0.856545 7678.46 13446.7 0.373594 40 32 1 2.48207e-314 0 0 0 
-3.06243 19.9433 1889.38 0.02 0.854003 7640.74 13420.4 0.374706 41 32 1 2.48207e-314 0 0 0 
-3.03898 20.3688 1905.1 0.02 0.851433 7602.68 13393.9 0.375837 42 32 1 2.48207e-314 0 0 0 
-3.01546 20.7952 1919.77 0.02 0.848836 7564.31 13367.1 0.376987 43 32 1 2.48207e-314 0 0 0 
-2.99186 21.2225 1933.4 0.02 0.846214 7525.64 13340 0.378155 44 32 1 2.48207e-314 0 0 0 
-2.9682 21.6509 1946.05 0.02 0.843569 7486.71 13312.6 0.379341 45 32 1 2.48207e-314 0 0 0 
-2.94445 22.0804 1957.76 0.02 0.8409 7447.52 13284.9 0.380545 46 32 1 2.48207e-314 0 0 0 
-2.92064 22.511 1968.56 0.02 0.83821 7408.1 13257 0.381766 47 32 1 2.48207e-314 0 0 0 
-2.89674 22.9428 1978.46 0.02 0.835499 7368.47 13228.9 0.383005 48 32 1 2.48207e-314 0 0 0 
-2.87277 23.3758 1987.47 0.02 0.832768 7328.63 13200.5 0.384261 49 32 1 2.48207e-314 0 0 0 
-2.84871 23.81 1995.6 0.02 0.830019 7288.62 13172 0.385534 50 32 1 2.48207e-314 0 0 0 
-2.82458 24.2453 2002.84 0.02 0.827251 7248.44 13143.2 0.386823 51 32 1 2.48207e-314 0 0 0 
-2.80037 24.6817 2009.18 0.02 0.824467 7208.11 13114.2 0.38813 52 32 1 2.48207e-314 0 0 0 
-2.77607 25.1193 2014.63 0.02 0.821667 7167.65 13085 0.389452 53 32 1 2.48207e-314 0 0 0 
-2.75169 25.5578 2019.2 0.02 0.818852 7127.08 13055.7 0.390791 54 32 1 2.48207e-314 0 0 0 
-2.72722 25.9974 2022.89 0.02 0.816023 7086.42 13026.2 0.392146 55 32 1 2.48207e-314 0 0 0 
-2.70267 26.438 2025.71 0.02 0.813182 7045.67 12996.6 0.393516 56 32 1 2.48207e-314 0 0 0 
-2.67803 26.8795 2027.68 0.02 0.810328 7004.86 12966.8 0.394902 57 32 1 2.48207e-314 0 0 0 
-2.65331 27.322 2028.81 0.02 0.807464 6964.01 12936.9 0.396302 58 32 1 2.48207e-314 0 0 0 
-2.62849 27.7653 2029.11 0.02 0.80459 6923.12 12906.9 0.397718 59 32 1 2.48207e-314 0 0 0 
-2.60359 28.2095 2028.59 0.02 0.801707 6882.21 12876.8 0.399148 60 32 1 2.48207e-314 0 0 0 
-2.5786 28.6545 2027.26 0.02 0.798817 6841.31 12846.6 0.400592 61 32 1 2.48207e-314 0 0 0 
-2.55351 29.1002 2025.13 0.02 0.795919 6800.42 12816.3 0.402051 62 32 1 2.48207e-314 0 0 0 
-2.52834 29.5465 2022.19 0.02 0.793016 6759.55 12785.9 0.403523 63 32 1 2.48207e-314 0 0 0 
-2.50307 29.9935 2018.46 0.02 0.790108 6718.73 12755.5 0.405008 64 32 1 2.48207e-314 0 0 0 
-2.47771 30.441 2013.95 0.02 0.787196 6677.97 12725 0.406506 65 32 1 2.48207e-314 0 0 0 
-2.45225 30.8889 2008.66 0.02 0.78428 6637.28 12694.5 0.408017 66 32 1 2.48207e-314 0 0 0 
-2.4267 31.3371 2002.6 0.02 0.781363 6596.68 12663.9 0.409541 67 32 1 2.48207e-314 0 0 0 
-2.40105 31.7856 1995.77 0.02 0.778445 6556.18 12633.4 0.411076 68 32 1 2.48207e-314 0 0 0 
-2.37531 32.2343 1988.18 0.02 0.775527 6515.8 12602.8 0.412623 69 32 1 2.48207e-314 0 0 0 
-2.34947 32.683 1979.84 0.02 0.77261 6475.54 12572.3 0.414181 70 32 1 2.48207e-314 0 0 0 
-2.32352 33.1317 1970.74 0.02 0.769695 6435.44 12541.7 0.415749 71 32 1 2.48207e-314 0 0 0 
-2.29749 33.5803 1960.91 0.02 0.766783 6395.49 12511.2 0.417328 72 32 1 2.48207e-314 0 0 0 
-2.27135 34.0286 1950.33 0.02 0.763875 6355.71 12480.7 0.418917 73 32 1 2.48207e-314 0 0 0 
-2.24511 34.4764 1939.03 0.02 0.760972 6316.12 12450.3 0.420515 74 32 1 2.48207e-314 0 0 0 
-2.21877 34.9238 1926.99 0.02 0.758075 6276.73 12419.9 0.422122 75 32 1 2.48207e-314 0 0 0 
-2.19233 35.3705 1914.23 0.02 0.755185 6237.55 12389.6 0.423737 76 32 1 2.48207e-314 0 0 0 
-2.16579 35.8164 1900.74 0.02 0.752304 6198.6 12359.4 0.42536 77 32 1 2.48207e-314 0 0 0 
-2.13915 36.2613 1886.54 0.02 0.749431 6159.9 12329.3 0.42699 78 32 1 2.48207e-314 0 0 0 
-2.1124 36.7052 1871.63 0.02 0.746569 6121.44 12299.4 0.428627 79 32 1 2.48207e-314 0 0 0 
-2.08555 37.1478 1856.01 0.02 0.743718 6083.26 12269.5 0.43027 80 32 1 2.48207e-314 0 0 0 
-2.0586 37.589 1839.7 0.02 0.74088 6045.36 12239.8 0.431919 81 32 1 2.48207e-314 0 0 0 
-2.03154 38.0286 1822.69 0.02 0.738055 6007.75 12210.2 0.433572 82 32 1 2.48207e-314 0 0 0 
-2.00438 38.4665 1804.99 0.02 0.735244 5970.46 12180.8 0.43523 83 32 1 2.48207e-314 0 0 0 
-1.97712 38.9025 1786.62 0.02 0.732449 5933.48 12151.5 0.43689 84 32 1 2.48207e-314 0 0 0 
-1.94975 39.3364 1767.57 0.02 0.729671 5896.84 12122.5 0.438554 85 32 1 2.48207e-314 0 0 0 
-1.92227 39.768 1747.87 0.02 0.726911 5860.55 12093.6 0.440219 86 32 1 2.48207e-314 0 0 0 
-1.8947 40.1972 1727.51 0.02 0.724169 5824.62 12065 0.441886 87 32 1 2.48207e-314 0 0 0 
-1.86701 40.6237 1706.51 0.02 0.721448 5789.06 12036.6 0.443553 88 32 1 2.48207e-314 0 0 0 
-1.83923 41.0474 1684.89 0.02 0.718747 5753.89 12008.4 0.445219 89 32 1 2.48207e-314 0 0 0 
-1.81134 41.4681 1662.66 0.02 0.716069 5719.12 11980.5 0.446884 90 32 1 2.48207e-314 0 0 0 
-1.78334 41.8855 1639.83 0.02 0.713414 5684.76 11952.8 0.448547 91 32 1 2.48207e-314 0 0 0 
-1.75524 42.2996 1616.42 0.02 0.710783 5650.82 11925.4 0.450208 92 32 1 2.48207e-314 0 0 0 
-1.72703 42.71 1592.45 0.02 0.708178 5617.31 11898.3 0.451864 93 32 1 2.48207e-314 0 0 0 
-1.69872 43.1167 1567.95 0.02 0.705599 5584.26 11871.5 0.453515 94 32 1 2.48207e-314 0 0 0 
-1.67031 43.5193 1542.94 0.02 0.703048 5551.66 11845.1 0.455161 95 32 1 2.48207e-314 0 0 0 
-1.6418 43.9178 1517.43 0.02 0.700526 5519.52 11818.9 0.4568 96 32 1 2.48207e-314 0 0 0 
-1.61318 44.3119 1491.46 0.02 0.698032 5487.87 11793.1 0.458431 97 32 1 2.48207e-314 0 0 0 
-1.58446 44.7014 1465.06 0.02 0.69557 5456.7 11767.6 0.460054 98 32 1 2.48207e-314 0 0 0 
-1.55564 45.0862 1438.25 0.02 0.693139 5426.03 11742.5 0.461668 99 32 1 2.48207e-314 0 0 0 
-1.52671 45.4661 1411.07 0.02 0.690741 5395.87 11717.8 0.463271 100 32 1 2.48207e-314 0 0 0 
-1.49769 45.8408 1383.55 0.02 0.688376 5366.22 11693.5 0.464862 101 32 1 2.48207e-314 0 0 0 
-1.46857 46.2103 1355.73 0.02 0.686045 5337.1 11669.5 0.466442 102 32 1 2.48207e-314 0 0 0 
-1.43935 46.5744 1327.65 0.02 0.68375 5308.5 11645.9 0.468008 103 32 1 2.48207e-314 0 0 0 
-1.41003 46.9329 1299.35 0.02 0.68149 5280.45 11622.8 0.469559 104 32 1 2.48207e-314 0 0 0 
-1.38061 47.2856 1270.86 0.02 0.679267 5252.93 11600.1 0.471096 105 32 1 2.48207e-314 0 0 0 
-1.3511 47.6325 1242.24 0.02 0.677081 5225.97 11577.8 0.472617 106 32 1 2.48207e-314 0 0 0 
-1.32149 47.9733 1213.52 0.02 0.674934 5199.55 11555.9 0.474121 107 32 1 2.48207e-314 0 0 0 
-1.29179 48.308 1184.74 0.02 0.672825 5173.7 11534.5 0.475607 108 32 1 2.48207e-314 0 0 0 
-1.262 48.6365 1155.96 0.02 0.670755 5148.4 11513.5 0.477074 109 32 1 2.48207e-314 0 0 0 
-1.23211 48.9586 1127.2 0.02 0.668725 5123.67 11493 0.478523 110 32 1 2.48207e-314 0 0 0 
-1.20214 49.2743 1098.51 0.02 0.666735 5099.5 11472.9 0.479951 111 32 1 2.48207e-314 0 0 0 
-1.17208 49.5834 1069.95 0.02 0.664786 5075.89 11453.3 0.481358 112 32 1 2.48207e-314 0 0 0 
-1.14192 49.8861 1041.53 0.02 0.662877 5052.85 11434.1 0.482744 113 32 1 2.48207e-314 0 0 0 
-1.11169 50.1821 1013.32 0.02 0.66101 5030.37 11415.4 0.484108 114 32 1 2.48207e-314 0 0 0 
-1.08137 50.4715 985.353 0.02 0.659184 5008.46 11397.1 0.485449 115 32 1 2.48207e-314 0 0 0 
-1.05096 50.7543 957.665 0.02 0.6574 4987.1 11379.3 0.486766 116 32 1 2.48207e-314 0 0 0 
-1.02047 51.0303 930.297 0.02 0.655657 4966.3 11362 0.48806 117 32 1 2.48207e-314 0 0 0 
-0.989908 51.2997 903.282 0.02 0.653956 4946.05 11345.1 0.48933 118 32 1 2.48207e-314 0 0 0 
-0.959263 51.5624 876.65 0.02 0.652296 4926.34 11328.6 0.490575 119 32 1 2.48207e-314 0 0 0 
-0.928541 51.8183 850.423 0.02 0.650678 4907.18 11312.6 0.491795 120 32 1 2.48207e-314 0 0 0 
-0.897744 52.0676 824.621 0.02 0.649101 4888.54 11297 0.49299 121 32 1 2.48207e-314 0 0 0 
-0.866873 52.3103 799.256 0.02 0.647565 4870.43 11281.9 0.494159 122 32 1 2.48207e-314 0 0 0 
-0.835929 52.5463 774.341 0.02 0.64607 4852.84 11267.1 0.495302 123 32 1 2.48207e-314 0 0 0 
-0.804915 52.7759 749.887 0.02 0.644616 4835.76 11252.8 0.496419 124 32 1 2.48207e-314 0 0 0 
-0.773832 52.9991 725.904 0.02 0.643202 4819.18 11238.9 0.497511 125 32 1 2.48207e-314 0 0 0 
-0.742681 53.2161 702.404 0.02 0.641828 4803.08 11225.3 0.498576 126 32 1 2.48207e-314 0 0 0 
-0.711465 53.4268 679.397 0.02 0.640494 4787.47 11212.1 0.499615 127 32 1 2.48207e-314 0 0 0 
-0.680185 53.6314 656.891 0.02 0.639197 4772.32 11199.3 0.500628 128 32 1 2.48207e-314 0 0 0 
-0.648844 53.8299 634.889 0.02 0.637939 4757.62 11186.8 0.501615 129 32 1 2.48207e-314 0 0 0 
-0.617442 54.0223 613.388 0.02 0.636718 4743.36 11174.7 0.502577 130 32 1 2.48207e-314 0 0 0 
-0.585983 54.2087 592.375 0.02 0.635533 4729.53 11162.9 0.503514 131 32 1 2.48207e-314 0 0 0 
-0.554466 54.3891 571.831 0.02 0.634384 4716.11 11151.4 0.504427 132 32 1 2.48207e-314 0 0 0 
-0.522893 54.5636 551.73 0.02 0.633269 4703.09 11140.1 0.505314 133 32 1 2.48207e-314 0 0 0 
-0.491266 54.7324 532.044 0.02 0.632188 4690.46 11129.2 0.506179 134 32 1 2.48207e-314 0 0 0 
-0.459585 54.8956 512.747 0.02 0.63114 4678.19 11118.6 0.507019 135 32 1 2.48207e-314 0 0 0 
-0.427851 55.0534 493.823 0.02 0.630122 4666.29 11108.2 0.507838 136 32 1 2.48207e-314 0 0 0 
-0.396067 55.206 475.262 0.02 0.629134 4654.74 11098.1 0.508636 137 32 1 2.48207e-314 0 0 0 
-0.364235 55.3536 457.065 0.02 0.628173 4643.52 11088.2 0.509413 138 32 1 2.48207e-314 0 0 0 
-0.332356 55.4962 439.239 0.02 0.627238 4632.61 11078.7 0.510173 139 32 1 2.48207e-314 0 0 0 
-0.300432 55.6339 421.794 0.02 0.626326 4622.02 11069.5 0.510916 140 32 1 2.48207e-314 0 0 0 
-0.268466 55.7666 404.736 0.02 0.625435 4611.72 11060.5 0.511644 141 32 1 2.48207e-314 0 0 0 
-0.236459 55.8942 388.067 0.02 0.624561 4601.7 11051.9 0.51236 142 32 1 2.48207e-314 0 0 0 
-0.20441 56.0168 371.773 0.02 0.623703 4591.96 11043.7 0.513064 143 32 1 2.48207e-314 0 0 0 
-0.172319 56.1345 355.836 0.02 0.622858 4582.49 11035.9 0.513761 144 32 1 2.48207e-314 0 0 0 
-0.140185 56.2476 340.225 0.02 0.622022 4573.28 11028.5 0.514451 145 32 1 2.48207e-314 0 0 0 
-0.108006 56.3562 324.909 0.02 0.621193 4564.35 11021.7 0.515138 146 32 1 2.48207e-314 0 0 0 
-0.0757817 56.4608 309.868 0.02 0.620365 4555.68 11015.4 0.515825 147 32 1 2.48207e-314 0 0 0 
-0.0435141 56.5617 295.095 0.02 0.619536 4547.3 11009.9 0.516515 148 32 1 2.48207e-314 0 0 0 
-0.0112052 56.6592 280.605 0.02 0.618701 4539.22 11005.1 0.517213 149 32 1 2.48207e-314 0 0 0 
0.0211423 56.7533 266.43 0.02 0.617855 4531.46 11001.3 0.517921 150 32 1 2.48207e-314 0 0 0 
0.0535263 56.844 252.613 0.02 0.616995 4524.03 10998.6 0.518643 151 32 1 2.48207e-314 0 0 0 
0.0859465 56.9314 239.194 0.02 0.616117 4516.97 10997.1 0.519382 152 32 1 2.48207e-314 0 0 0 
0.118405 57.0152 226.208 0.02 0.615216 4510.31 10997 0.520143 153 32 1 2.48207e-314 0 0 0 
0.150908 57.0957 213.681 0.02 0.61429 4504.09 10998.3 0.520926 154 32 1 2.48207e-314 0 0 0 
0.183462 57.1729 201.613 0.02 0.613337 4498.36 11001.4 0.521736 155 32 1 2.48207e-314 0 0 0 
0.216074 57.2474 189.981 0.02 0.612354 4493.17 11006.4 0.522573 156 32 1 2.48207e-314 0 0 0 
0.248752 57.3196 178.733 0.02 0.61134 4488.58 11013.4 0.52344 157 32 1 2.48207e-314 0 0 0 
0.281495 57.39 167.788 0.02 0.610294 4484.67 11022.6 0.524337 158 32 1 2.48207e-314 0 0 0 
0.3143 57.4583 157.058 0.02 0.609218 4481.53 11034.3 0.525263 159 32 1 2.48207e-314 0 0 0 
0.347156 57.5243 146.495 0.02 0.608115 4479.22 11048.7 0.526216 160 32 1 2.48207e-314 0 0 0 
0.380057 57.5879 136.211 0.02 0.606991 4477.85 11065.8 0.527191 161 32 1 2.48207e-314 0 0 0 
0.413002 57.6495 126.278 0.02 0.605853 4477.5 11085.7 0.528181 162 32 1 2.48207e-314 0 0 0 
0.445998 57.7096 116.778 0.02 0.60471 4478.25 11108.5 0.529179 163 32 1 2.48207e-314 0 0 0 
0.479062 57.7686 107.769 0.02 0.603574 4480.17 11134.1 0.530175 164 32 1 2.48207e-314 0 0 0 
0.512218 57.8266 99.2069 0.02 0.602457 4483.34 11162.7 0.531158 165 32 1 2.48207e-314 0 0 0 
0.545478 57.8826 90.9863 0.02 0.601379 4487.83 11193.9 0.532111 166 32 1 2.48207e-314 0 0 0 
0.578839 57.9352 83.0557 0.02 0.60036 4493.72 11227.6 0.533013 167 32 1 2.48207e-314 0 0 0 
0.61228 57.9836 75.4009 0.02 0.599431 4501.05 11263.3 0.533839 168 33 1 2.48207e-314 0 0 0 
0.645775 58.0274 67.9136 0.02 0.598622 4509.86 11300.6 0.534561 169 33 1 2.48207e-314 0 0 0 
0.679303 58.0666 60.589 0.02 0.597966 4520.13 11338.8 0.535148 170 33 1 2.48207e-314 0 0 0 
0.712847 58.103 53.6271 0.02 0.597499 4531.82 11377 0.535566 171 33 1 2.48207e-314 0 0 0 
0.746409 58.1359 46.3569 0.02 0.597262 4544.88 11414.3 0.535779 172 33 1 2.48207e-314 0 0 0 
0.779975 58.1618 38.8603 0.02 0.597305 4559.22 11449.5 0.53574 173 33 1 2.48207e-314 0 0 0 
0.813544 58.1811 31.955 0.02 0.597686 4574.68 11481 0.535399 174 33 1 2.48207e-314 0 0 0 
0.84718 58.2001 26.1313 0.02 0.598466 4591.1 11507.2 0.5347 175 33 1 2.48207e-314 0 0 0 
0.880929 58.2194 21.0886 0.02 0.59971 4608.21 11526.1 0.533591 176 32 1 2.48207e-314 0 0 0 
0.914727 58.236 16.638 0.02 0.601484 4625.7 11535.7 0.532018 177 33 1 2.48207e-314 0 0 0 
0.948511 58.2462 11.9753 0.02 0.603859 4643.2 11533.8 0.529925 178 33 1 2.48207e-314 0 0 0 
0.982134 58.2344 6.92571 0.02 0.60691 4660.23 11517.9 0.527261 179 33 1 2.48207e-314 0 0 0 
1.01537 58.1925 2.00193 0.02 0.610712 4676.23 11485.5 0.523979 180 34 1 2.48207e-314 0 0 0 
1.04806 58.1247 -1.84678 0.02 0.615329 4690.53 11434.2 0.520047 181 34 1 2.48207e-314 0 0 0 
1.0803 58.0677 -3.41356 0.02 0.620856 4702.73 11361.9 0.515417 182 34 1 2.48207e-314 0 0 0 
1.11276 58.0418 -5.18623 0.02 0.627499 4712.73 11265.5 0.509961 183 35 1 2.48207e-314 0 0 0 
1.14552 58.0249 -7.1346 0.02 0.635439 4719.85 11141.6 0.503589 184 35 1 2.48207e-314 0 0 0 
1.17827 58.0024 -9.19702 0.02 0.644801 4723.18 10987.6 0.496277 185 35 1 2.48207e-314 0 0 0 
1.21066 57.9599 -11.6252 0.02 0.655681 4721.84 10802.2 0.488042 186 35 1 2.48207e-314 0 0 0 
1.24221 57.8711 -13.451 0.02 0.66808 4714.73 10585.8 0.478985 187 36 1 2.48207e-314 0 0 0 
1.27177 57.7238 -11.0206 0.02 0.68153 4701.03 10346.7 0.469532 188 36 1 2.48207e-314 0 0 0 
1.30052 57.6175 -7.46249 0.02 0.696541 4682.37 10083.5 0.459413 189 37 1 2.48207e-314 0 0 0 
1.32916 57.5347 -5.05358 0.02 0.713641 4658.31 9791.33 0.448405 190 37 1 2.48207e-314 0 0 0 
1.35815 57.496 -3.6191 0.02 0.733396 4628.82 9467.29 0.436327 191 37 1 2.48207e-314 0 0 0 
1.38644 57.4405 -1.73323 0.02 0.755395 4592.75 9119.95 0.423619 192 38 1 2.48207e-314 0 0 0 
1.41518 57.4297 -0.200034 0.02 0.781044 4550.5 8739.31 0.409708 193 39 1 2.48207e-314 0 0 0 
1.44338 57.3381 -1.80918 0.02 0.810084 4499.03 8330.72 0.395021 194 39 1 2.48207e-314 0 0 0 
1.46812 57.1891 2.81183 0.02 0.839242 4442.43 7940.12 0.381296 195 39 1 2.48207e-314 0 0 0 
1.49151 57.0898 6.86989 0.02 0.870457 4384 7554.68 0.367623 196 39 1 2.48207e-314 0 0 0 
1.51417 57.0606 8.78147 0.02 0.904559 4325.38 7172.66 0.353764 197 40 1 2.48207e-314 0 0 0 
1.5355 57.0767 9.90071 0.02 0.940581 4268.47 6807.19 0.340215 198 40 1 2.48207e-314 0 0 0 
1.55402 57.0919 11.6571 0.02 0.975411 4216.64 6484.41 0.328067 199 40 1 2.48207e-314 0 0 0 
1.58705 56.9422 16.9064 0.02 1.04771 4108.95 5882.74 0.305428 200 40 1 2.48206e-314 0 0 0 
1.60368 56.9559 16.9091 0.02 1.09 4055.88 5581.45 0.293577 201 40 1 2.48206e-314 0 0 0 
1.62089 56.9876 15.7739 0.02 1.13864 3999.42 5268.66 0.281038 202 40 1 2.48206e-314 0 0 0 
1.63786 57.0002 14.9594 0.02 1.19222 3940.83 4958.16 0.268407 203 40 1 2.48206e-314 0 0 0 
1.65414 56.9782 15.0829 0.02 1.24985 3881.47 4658.27 0.25603 204 40 1 2.48206e-314 0 0 0 
1.67054 56.943 14.8328 0.02 1.31515 3821.35 4358.4 0.243318 205 39 1 2.48206e-314 0 0 0 
1.68905 57.0127 9.58849 0.02 1.39888 3763.82 4035.86 0.228755 206 39 1 2.48206e-314 0 0 0 
1.70486 57.0903 8.64414 0.02 1.47938 3716.27 3768.04 0.216307 207 39 1 2.48206e-314 0 0 0 
1.71856 57.131 7.18316 0.02 1.55731 3674.33 3539.08 0.205483 208 39 1 2.48206e-314 0 0 0 
1.7316 57.1868 5.30829 0.02 1.63999 3637.16 3326.65 0.195123 209 37 1 2.48206e-314 0 0 0 
1.74346 57.2282 3.27574 0.02 1.72355 3604.44 3136.89 0.185663 210 37 1 2.48206e-314 0 0 0 
1.75457 57.2391 0.620239 0.02 1.81032 3573.96 2961.29 0.176764 211 37 1 2.48206e-314 0 0 0 
1.76622 57.3051 -4.53569 0.02 1.91107 3549.37 2785.87 0.167445 212 37 1 2.48206e-314 0 0 0 
1.77758 57.3992 -7.56976 0.02 2.01912 3531.01 2623.16 0.158485 213 36 1 2.48206e-314 0 0 0 
1.78818 57.4831 -9.6477 0.02 2.129 3517.62 2478.34 0.150305 214 35 1 2.48206e-314 0 0 0 
