# Time [s]: 0.031953
# Columns: pos [m], vel [m/s], acc [m/s^2], mass [kg], dens [kg/m^3], pres [Pa], ene [J/kg], sml [m], id, neighbor, alpha, gradh, ...additional?
# Additional arrays: grad_velocity_0(vector) grad_pressure(vector) grad_density(vector) 
-3.95819 6.63523 587.756 0.02 0.872033 8391.59 14434.7 0.366958 0 33 1 2.48207e-314 0 0 0 
-3.94158 5.73736 501 0.02 0.86979 8342.33 14387 0.367905 1 33 1 2.48207e-314 0 0 0 
-3.92339 5.17623 424.222 0.02 0.868176 8289.94 14323.2 0.368589 2 34 1 2.48207e-314 0 0 0 
-3.90386 4.91967 369.522 0.02 0.867194 8236.77 14247.4 0.369006 3 34 1 2.48207e-314 0 0 0 
-3.8832 4.9327 341.989 0.02 0.866809 8184.93 14164 0.36917 4 33 1 2.48207e-314 0 0 0 
-3.86148 5.20204 347.992 0.02 0.866942 8136 14077.2 0.369113 5 33 1 2.48207e-314 0 0 0 
-3.83869 5.75138 400.17 0.02 0.867439 8090.72 13990.8 0.368902 6 32 1 2.48207e-314 0 0 0 
-3.81463 6.66087 526.369 0.02 0.867994 8048.47 13908.8 0.368666 7 32 1 2.48207e-314 0 0 0 
-3.78926 7.91227 707.431 0.02 0.868062 8007.17 13836.3 0.368637 8 32 1 2.48207e-314 0 0 0 
-3.76515 8.77074 816.005 0.02 0.867543 7969.92 13780.1 0.368858 9 32 1 2.48207e-314 0 0 0 
-3.74194 9.30625 840.556 0.02 0.86691 7937.86 13734.7 0.369127 10 32 1 2.48207e-314 0 0 0 
-3.71909 9.72982 845.082 0.02 0.86635 7910.46 13696.2 0.369366 11 31 1 2.48207e-314 0 0 0 
-3.69632 10.1392 854.725 0.02 0.865873 7886.62 13662.4 0.369569 12 31 1 2.48207e-314 0 0 0 
-3.67352 10.572 876.02 0.02 0.86543 7865.16 13632.2 0.369758 13 31 1 2.48207e-314 0 0 0 
-3.65066 11.0285 906.866 0.02 0.864953 7845.07 13604.8 0.369962 14 31 1 2.48207e-314 0 0 0 
-3.62781 11.4817 938.581 0.02 0.864401 7825.63 13579.8 0.370199 15 31 1 2.48207e-314 0 0 0 
-3.60503 11.9212 974.819 0.02 0.863783 7806.54 13556.3 0.370463 16 32 1 2.48207e-314 0 0 0 
-3.58191 12.4331 1016.49 0.02 0.86307 7786.95 13533.5 0.37077 17 32 1 2.48207e-314 0 0 0 
-3.5586 12.9915 1066.98 0.02 0.86218 7766.44 13511.8 0.371152 18 32 1 2.48207e-314 0 0 0 
-3.53522 13.5477 1113.81 0.02 0.861093 7744.98 13491.4 0.371621 19 32 1 2.48207e-314 0 0 0 
-3.51185 14.0817 1153.33 0.02 0.859832 7722.76 13472.4 0.372166 20 32 1 2.48207e-314 0 0 0 
-3.4885 14.588 1185.52 0.02 0.858436 7699.95 13454.5 0.372771 21 31 1 2.48207e-314 0 0 0 
-3.46519 15.0679 1211.78 0.02 0.856945 7676.71 13437.2 0.373419 22 31 1 2.48207e-314 0 0 0 
-3.4419 15.5261 1233.8 0.02 0.855391 7653.12 13420.3 0.374098 23 32 1 2.48207e-314 0 0 0 
-3.41861 15.9736 1254.38 0.02 0.853797 7629.17 13403.3 0.374797 24 32 1 2.48207e-314 0 0 0 
-3.39525 16.4293 1278.03 0.02 0.852163 7604.71 13385.9 0.375515 25 32 1 2.48207e-314 0 0 0 
-3.37181 16.898 1305.44 0.02 0.850479 7579.56 13368.1 0.376259 26 32 1 2.48207e-314 0 0 0 
-3.34829 17.3767 1334.99 0.02 0.848731 7553.61 13349.7 0.377033 27 32 1 2.48207e-314 0 0 0 
-3.3247 17.8596 1364.71 0.02 0.846914 7526.83 13331 0.377842 28 32 1 2.48207e-314 0 0 0 
-3.30105 18.3422 1393.11 0.02 0.845029 7499.27 13311.8 0.378685 29 32 1 2.48207e-314 0 0 0 
-3.27735 18.8214 1419.5 0.02 0.843082 7471 13292.2 0.37956 30 32 1 2.48207e-314 0 0 0 
-3.25359 19.2963 1443.82 0.02 0.841081 7442.09 13272.3 0.380463 31 32 1 2.48207e-314 0 0 0 
-3.22979 19.767 1466.42 0.02 0.839032 7412.6 13252 0.381392 32 32 1 2.48207e-314 0 0 0 
-3.20593 20.2338 1487.66 0.02 0.836944 7382.61 13231.3 0.382343 33 32 1 2.48207e-314 0 0 0 
-3.18202 20.6981 1508.04 0.02 0.83482 7352.14 13210.2 0.383316 34 32 1 2.48207e-314 0 0 0 
-3.15805 21.1612 1527.97 0.02 0.832664 7321.2 13188.7 0.384309 35 32 1 2.48207e-314 0 0 0 
-3.13401 21.6242 1547.62 0.02 0.830476 7289.82 13166.8 0.385321 36 32 1 2.48207e-314 0 0 0 
-3.10991 22.0875 1566.98 0.02 0.828257 7258 13144.4 0.386354 37 32 1 2.48207e-314 0 0 0 
-3.08574 22.5512 1585.92 0.02 0.826006 7225.74 13121.7 0.387406 38 32 1 2.48207e-314 0 0 0 
-3.0615 23.0148 1604.25 0.02 0.823725 7193.06 13098.5 0.388479 39 32 1 2.48207e-314 0 0 0 
-3.03719 23.4779 1621.76 0.02 0.821412 7159.99 13075 0.389573 40 32 1 2.48207e-314 0 0 0 
-3.01281 23.9399 1638.28 0.02 0.81907 7126.55 13051.2 0.390687 41 32 1 2.48207e-314 0 0 0 
-2.98836 24.4005 1653.72 0.02 0.816701 7092.77 13027 0.391821 42 32 1 2.48207e-314 0 0 0 
-2.96384 24.8597 1668.12 0.02 0.814305 7058.69 13002.5 0.392973 43 32 1 2.48207e-314 0 0 0 
-2.93925 25.3175 1681.54 0.02 0.811886 7024.32 12977.8 0.394144 44 32 1 2.48207e-314 0 0 0 
-2.91458 25.7741 1694.07 0.02 0.809444 6989.69 12952.8 0.395333 45 32 1 2.48207e-314 0 0 0 
-2.88984 26.2298 1705.77 0.02 0.806981 6954.81 12927.5 0.39654 46 32 1 2.48207e-314 0 0 0 
-2.86502 26.6847 1716.65 0.02 0.804498 6919.71 12901.9 0.397764 47 32 1 2.48207e-314 0 0 0 
-2.84013 27.1388 1726.71 0.02 0.801995 6884.4 12876.2 0.399005 48 32 1 2.48207e-314 0 0 0 
-2.81516 27.5921 1735.93 0.02 0.799474 6848.89 12850.2 0.400263 49 32 1 2.48207e-314 0 0 0 
-2.7901 28.0446 1744.27 0.02 0.796935 6813.21 12823.9 0.401538 50 32 1 2.48207e-314 0 0 0 
-2.76497 28.4961 1751.7 0.02 0.79438 6777.37 12797.5 0.40283 51 32 1 2.48207e-314 0 0 0 
-2.73975 28.9467 1758.19 0.02 0.791809 6741.39 12770.9 0.404138 52 32 1 2.48207e-314 0 0 0 
-2.71445 29.3963 1763.74 0.02 0.789224 6705.3 12744.2 0.405462 53 32 1 2.48207e-314 0 0 0 
-2.68907 29.8449 1768.35 0.02 0.786626 6669.1 12717.2 0.406801 54 32 1 2.48207e-314 0 0 0 
-2.66361 30.2924 1772.02 0.02 0.784016 6632.82 12690.2 0.408155 55 32 1 2.48207e-314 0 0 0 
-2.63805 30.7388 1774.77 0.02 0.781396 6596.47 12662.9 0.409524 56 32 1 2.48207e-314 0 0 0 
-2.61242 31.1842 1776.61 0.02 0.778766 6560.08 12635.6 0.410907 57 32 1 2.48207e-314 0 0 0 
-2.58669 31.6286 1777.54 0.02 0.776127 6523.65 12608.2 0.412303 58 32 1 2.48207e-314 0 0 0 
-2.56088 32.0719 1777.57 0.02 0.773482 6487.22 12580.7 0.413714 59 32 1 2.48207e-314 0 0 0 
-2.53497 32.514 1776.7 0.02 0.77083 6450.79 12553 0.415137 60 32 1 2.48207e-314 0 0 0 
-2.50898 32.955 1774.94 0.02 0.768173 6414.38 12525.4 0.416573 61 32 1 2.48207e-314 0 0 0 
-2.4829 33.3948 1772.28 0.02 0.765513 6378 12497.6 0.418021 62 32 1 2.48207e-314 0 0 0 
-2.45672 33.8334 1768.74 0.02 0.762849 6341.68 12469.9 0.41948 63 32 1 2.48207e-314 0 0 0 
-2.43046 34.2706 1764.31 0.02 0.760184 6305.43 12442 0.420951 64 32 1 2.48207e-314 0 0 0 
-2.4041 34.7065 1759.01 0.02 0.757519 6269.27 12414.2 0.422432 65 32 1 2.48207e-314 0 0 0 
-2.37765 35.141 1752.84 0.02 0.754855 6233.21 12386.4 0.423923 66 32 1 2.48207e-314 0 0 0 
-2.3511 35.574 1745.81 0.02 0.752192 6197.27 12358.6 0.425423 67 32 1 2.48207e-314 0 0 0 
-2.32446 36.0054 1737.94 0.02 0.749532 6161.47 12330.8 0.426933 68 32 1 2.48207e-314 0 0 0 
-2.29772 36.4351 1729.23 0.02 0.746877 6125.82 12303 0.428451 69 32 1 2.48207e-314 0 0 0 
-2.27089 36.8632 1719.7 0.02 0.744227 6090.33 12275.3 0.429976 70 32 1 2.48207e-314 0 0 0 
-2.24396 37.2894 1709.36 0.02 0.741584 6055.03 12247.7 0.431509 71 32 1 2.48207e-314 0 0 0 
-2.21694 37.7138 1698.22 0.02 0.738948 6019.92 12220.1 0.433048 72 32 1 2.48207e-314 0 0 0 
-2.18982 38.1361 1686.29 0.02 0.736321 5985.03 12192.6 0.434593 73 32 1 2.48207e-314 0 0 0 
-2.1626 38.5564 1673.59 0.02 0.733704 5950.36 12165.2 0.436143 74 32 1 2.48207e-314 0 0 0 
-2.13528 38.9745 1660.13 0.02 0.731097 5915.93 12138 0.437698 75 32 1 2.48207e-314 0 0 0 
-2.10787 39.3902 1645.92 0.02 0.728503 5881.76 12110.8 0.439257 76 32 1 2.48207e-314 0 0 0 
-2.08036 39.8035 1630.98 0.02 0.725922 5847.86 12083.8 0.440818 77 32 1 2.48207e-314 0 0 0 
-2.05275 40.2143 1615.33 0.02 0.723356 5814.23 12057 0.442383 78 32 1 2.48207e-314 0 0 0 
-2.02504 40.6224 1598.98 0.02 0.720805 5780.91 12030.3 0.443948 79 32 1 2.48207e-314 0 0 0 
-1.99723 41.0276 1581.96 0.02 0.71827 5747.89 12003.8 0.445515 80 32 1 2.48207e-314 0 0 0 
-1.96933 41.43 1564.27 0.02 0.715753 5715.19 11977.5 0.447082 81 32 1 2.48207e-314 0 0 0 
-1.94133 41.8292 1545.95 0.02 0.713254 5682.83 11951.4 0.448648 82 32 1 2.48207e-314 0 0 0 
-1.91322 42.2253 1527 0.02 0.710775 5650.82 11925.5 0.450213 83 32 1 2.48207e-314 0 0 0 
-1.88502 42.618 1507.46 0.02 0.708317 5619.16 11899.9 0.451775 84 32 1 2.48207e-314 0 0 0 
-1.85673 43.0072 1487.35 0.02 0.705881 5587.87 11874.5 0.453334 85 32 1 2.48207e-314 0 0 0 
-1.82833 43.3927 1466.68 0.02 0.703467 5556.97 11849.3 0.45489 86 32 1 2.48207e-314 0 0 0 
-1.79984 43.7745 1445.49 0.02 0.701077 5526.45 11824.4 0.456441 87 32 1 2.48207e-314 0 0 0 
-1.77125 44.1524 1423.79 0.02 0.698711 5496.34 11799.8 0.457986 88 32 1 2.48207e-314 0 0 0 
-1.74256 44.5262 1401.62 0.02 0.696371 5466.64 11775.5 0.459525 89 32 1 2.48207e-314 0 0 0 
-1.71378 44.8958 1379 0.02 0.694058 5437.36 11751.4 0.461057 90 32 1 2.48207e-314 0 0 0 
-1.6849 45.261 1355.97 0.02 0.691772 5408.52 11727.7 0.46258 91 32 1 2.48207e-314 0 0 0 
-1.65592 45.6218 1332.55 0.02 0.689514 5380.11 11704.3 0.464095 92 32 1 2.48207e-314 0 0 0 
-1.62685 45.9779 1308.78 0.02 0.687286 5352.15 11681.3 0.4656 93 32 1 2.48207e-314 0 0 0 
-1.59769 46.3293 1284.68 0.02 0.685087 5324.64 11658.5 0.467094 94 32 1 2.48207e-314 0 0 0 
-1.56843 46.6758 1260.29 0.02 0.682919 5297.6 11636.1 0.468577 95 32 1 2.48207e-314 0 0 0 
-1.53908 47.0172 1235.65 0.02 0.680782 5271.03 11614.1 0.470048 96 32 1 2.48207e-314 0 0 0 
-1.50964 47.3536 1210.79 0.02 0.678677 5244.93 11592.5 0.471506 97 32 1 2.48207e-314 0 0 0 
-1.48011 47.6846 1185.74 0.02 0.676605 5219.31 11571.2 0.47295 98 32 1 2.48207e-314 0 0 0 
-1.45049 48.0104 1160.54 0.02 0.674566 5194.18 11550.2 0.474379 99 32 1 2.48207e-314 0 0 0 
-1.42077 48.3306 1135.22 0.02 0.672561 5169.53 11529.7 0.475793 100 32 1 2.48207e-314 0 0 0 
-1.39097 48.6453 1109.82 0.02 0.67059 5145.38 11509.6 0.477192 101 32 1 2.48207e-314 0 0 0 
-1.36109 48.9544 1084.38 0.02 0.668655 5121.73 11489.8 0.478573 102 32 1 2.48207e-314 0 0 0 
-1.33111 49.2578 1058.93 0.02 0.666754 5098.57 11470.5 0.479937 103 32 1 2.48207e-314 0 0 0 
-1.30105 49.5554 1033.52 0.02 0.664889 5075.92 11451.5 0.481283 104 32 1 2.48207e-314 0 0 0 
-1.27091 49.8471 1008.16 0.02 0.66306 5053.77 11433 0.482611 105 32 1 2.48207e-314 0 0 0 
-1.24069 50.133 982.904 0.02 0.661268 5032.12 11414.9 0.483919 106 32 1 2.48207e-314 0 0 0 
-1.21038 50.4129 957.78 0.02 0.659512 5010.97 11397.2 0.485207 107 32 1 2.48207e-314 0 0 0 
-1.18 50.6868 932.819 0.02 0.657792 4990.32 11379.9 0.486476 108 32 1 2.48207e-314 0 0 0 
-1.14953 50.9548 908.05 0.02 0.65611 4970.17 11363 0.487723 109 32 1 2.48207e-314 0 0 0 
-1.11899 51.2167 883.501 0.02 0.654464 4950.52 11346.5 0.48895 110 32 1 2.48207e-314 0 0 0 
-1.08837 51.4725 859.194 0.02 0.652855 4931.36 11330.4 0.490155 111 32 1 2.48207e-314 0 0 0 
-1.05768 51.7224 835.153 0.02 0.651284 4912.69 11314.8 0.491337 112 32 1 2.48207e-314 0 0 0 
-1.02692 51.9662 811.4 0.02 0.649749 4894.51 11299.6 0.492498 113 32 1 2.48207e-314 0 0 0 
-0.996079 52.204 787.953 0.02 0.648251 4876.82 11284.7 0.493636 114 32 1 2.48207e-314 0 0 0 
-0.965171 52.4358 764.831 0.02 0.64679 4859.61 11270.3 0.494751 115 32 1 2.48207e-314 0 0 0 
-0.934194 52.6618 742.052 0.02 0.645366 4842.87 11256.2 0.495843 116 32 1 2.48207e-314 0 0 0 
-0.90315 52.8819 719.631 0.02 0.643978 4826.59 11242.6 0.496912 117 32 1 2.48207e-314 0 0 0 
-0.87204 53.0961 697.58 0.02 0.642626 4810.78 11229.3 0.497957 118 32 1 2.48207e-314 0 0 0 
-0.840866 53.3045 675.908 0.02 0.64131 4795.42 11216.4 0.498979 119 32 1 2.48207e-314 0 0 0 
-0.809628 53.5071 654.619 0.02 0.64003 4780.51 11203.9 0.499977 120 32 1 2.48207e-314 0 0 0 
-0.77833 53.7039 633.711 0.02 0.638785 4766.04 11191.8 0.500951 121 32 1 2.48207e-314 0 0 0 
-0.746972 53.8951 613.181 0.02 0.637575 4752 11180 0.501901 122 32 1 2.48207e-314 0 0 0 
-0.715555 54.0806 593.021 0.02 0.6364 4738.38 11168.5 0.502828 123 32 1 2.48207e-314 0 0 0 
-0.684081 54.2606 573.225 0.02 0.63526 4725.18 11157.4 0.503731 124 32 1 2.48207e-314 0 0 0 
-0.652551 54.4351 553.786 0.02 0.634154 4712.39 11146.6 0.50461 125 32 1 2.48207e-314 0 0 0 
-0.620966 54.6043 534.701 0.02 0.633081 4699.98 11136.1 0.505465 126 32 1 2.48207e-314 0 0 0 
-0.589329 54.7683 515.967 0.02 0.632041 4687.97 11125.9 0.506296 127 32 1 2.48207e-314 0 0 0 
-0.557641 54.927 497.586 0.02 0.631034 4676.33 11116 0.507104 128 32 1 2.48207e-314 0 0 0 
-0.525904 55.0807 479.559 0.02 0.630058 4665.06 11106.4 0.50789 129 32 1 2.48207e-314 0 0 0 
-0.49412 55.2292 461.885 0.02 0.629113 4654.14 11097 0.508652 130 32 1 2.48207e-314 0 0 0 
-0.462289 55.3726 444.559 0.02 0.628199 4643.56 11087.9 0.509393 131 32 1 2.48207e-314 0 0 0 
-0.430414 55.5109 427.571 0.02 0.627314 4633.32 11079 0.510111 132 32 1 2.48207e-314 0 0 0 
-0.398496 55.6442 410.909 0.02 0.626457 4623.39 11070.4 0.510809 133 32 1 2.48207e-314 0 0 0 
-0.366535 55.7725 394.557 0.02 0.625628 4613.76 11062 0.511486 134 32 1 2.48207e-314 0 0 0 
-0.334532 55.896 378.499 0.02 0.624826 4604.44 11053.8 0.512143 135 32 1 2.48207e-314 0 0 0 
-0.302488 56.0148 362.725 0.02 0.624048 4595.39 11045.8 0.512781 136 32 1 2.48207e-314 0 0 0 
-0.270404 56.1291 347.233 0.02 0.623294 4586.62 11038.1 0.513401 137 32 1 2.48207e-314 0 0 0 
-0.238282 56.2391 332.028 0.02 0.622561 4578.11 11030.6 0.514006 138 32 1 2.48207e-314 0 0 0 
-0.206124 56.3449 317.122 0.02 0.621847 4569.86 11023.3 0.514596 139 32 1 2.48207e-314 0 0 0 
-0.173932 56.4465 302.535 0.02 0.621151 4561.84 11016.3 0.515173 140 32 1 2.48207e-314 0 0 0 
-0.141708 56.5439 288.287 0.02 0.620468 4554.06 11009.6 0.515739 141 32 1 2.48207e-314 0 0 0 
-0.109452 56.637 274.397 0.02 0.619798 4546.5 11003.3 0.516297 142 32 1 2.48207e-314 0 0 0 
-0.0771662 56.726 260.878 0.02 0.619136 4539.17 10997.3 0.516849 143 32 1 2.48207e-314 0 0 0 
-0.0448478 56.8109 247.731 0.02 0.61848 4532.04 10991.6 0.517398 144 32 1 2.48207e-314 0 0 0 
-0.0124956 56.8919 234.948 0.02 0.617826 4525.13 10986.5 0.517945 145 32 1 2.48207e-314 0 0 0 
0.0198921 56.9692 222.514 0.02 0.617171 4518.44 10981.9 0.518495 146 32 1 2.48207e-314 0 0 0 
0.0523162 57.0432 210.414 0.02 0.61651 4511.98 10977.9 0.519051 147 32 1 2.48207e-314 0 0 0 
0.0847764 57.1141 198.641 0.02 0.615841 4505.75 10974.7 0.519615 148 32 1 2.48207e-314 0 0 0 
0.117271 57.1823 187.202 0.02 0.615157 4499.78 10972.3 0.520192 149 32 1 2.48207e-314 0 0 0 
0.149797 57.2478 176.111 0.02 0.614456 4494.1 10971 0.520786 150 32 1 2.48207e-314 0 0 0 
0.182353 57.3109 165.394 0.02 0.613734 4488.71 10970.7 0.521399 151 32 1 2.48207e-314 0 0 0 
0.214939 57.3715 155.076 0.02 0.612985 4483.67 10971.8 0.522036 152 32 1 2.48207e-314 0 0 0 
0.247557 57.4295 145.185 0.02 0.612208 4479 10974.3 0.522698 153 32 1 2.48207e-314 0 0 0 
0.280211 57.4852 135.746 0.02 0.611399 4474.75 10978.4 0.52339 154 32 1 2.48207e-314 0 0 0 
0.312911 57.5387 126.764 0.02 0.610556 4470.97 10984.2 0.524112 155 32 1 2.48207e-314 0 0 0 
0.345665 57.5904 118.229 0.02 0.609678 4467.71 10992 0.524868 156 32 1 2.48207e-314 0 0 0 
0.378479 57.6409 110.098 0.02 0.608763 4465.05 11002 0.525656 157 32 1 2.48207e-314 0 0 0 
0.411356 57.6901 102.291 0.02 0.607812 4463.04 11014.2 0.526478 158 32 1 2.48207e-314 0 0 0 
0.444291 57.7378 94.7088 0.02 0.606828 4461.77 11028.9 0.527332 159 32 1 2.48207e-314 0 0 0 
0.477272 57.7837 87.3261 0.02 0.605816 4461.32 11046.3 0.528214 160 32 1 2.48207e-314 0 0 0 
0.510293 57.8278 80.1973 0.02 0.604782 4461.77 11066.3 0.529117 161 32 1 2.48207e-314 0 0 0 
0.543354 57.8705 73.3394 0.02 0.603735 4463.21 11089 0.530034 162 32 1 2.48207e-314 0 0 0 
0.576464 57.9126 66.8347 0.02 0.602687 4465.71 11114.5 0.530955 163 32 1 2.48207e-314 0 0 0 
0.609641 57.9547 60.7113 0.02 0.60165 4469.33 11142.7 0.531871 164 32 1 2.48207e-314 0 0 0 
0.642908 57.9967 54.9121 0.02 0.600638 4474.14 11173.5 0.532767 165 32 1 2.48207e-314 0 0 0 
0.676277 58.0373 49.353 0.02 0.599671 4480.21 11206.7 0.533626 166 32 1 2.48207e-314 0 0 0 
0.709738 58.0751 44.0385 0.02 0.598775 4487.59 11241.9 0.534424 167 33 1 2.48207e-314 0 0 0 
0.743271 58.1092 38.9302 0.02 0.597979 4496.31 11278.8 0.535136 168 33 1 2.48207e-314 0 0 0 
0.776849 58.1392 33.9891 0.02 0.597315 4506.37 11316.6 0.535731 169 33 1 2.48207e-314 0 0 0 
0.810448 58.165 29.3101 0.02 0.596816 4517.74 11354.6 0.536178 170 33 1 2.48207e-314 0 0 0 
0.84406 58.1885 24.7425 0.02 0.596521 4530.35 11391.9 0.536444 171 33 1 2.48207e-314 0 0 0 
0.877679 58.2078 19.7603 0.02 0.596471 4544.13 11427.5 0.536489 172 33 1 2.48207e-314 0 0 0 
0.911287 58.2195 14.5543 0.02 0.596718 4558.97 11460.1 0.536267 173 33 1 2.48207e-314 0 0 0 
0.944884 58.226 9.96149 0.02 0.597321 4574.69 11488 0.535725 174 33 1 2.48207e-314 0 0 0 
0.97855 58.2344 6.27125 0.02 0.598341 4591.11 11509.6 0.534812 175 33 1 2.48207e-314 0 0 0 
1.01233 58.2446 3.1317 0.02 0.599842 4607.98 11523 0.533474 176 33 1 2.48207e-314 0 0 0 
1.04616 58.2531 0.310647 0.02 0.601889 4624.97 11526.1 0.531659 177 33 1 2.48207e-314 0 0 0 
1.07995 58.2548 -2.72767 0.02 0.604552 4641.71 11516.9 0.529318 178 33 1 2.48207e-314 0 0 0 
1.11354 58.2337 -6.07849 0.02 0.607901 4657.73 11493 0.526402 179 33 1 2.48207e-314 0 0 0 
1.14667 58.1828 -9.26488 0.02 0.612 4672.44 11452 0.522876 180 34 1 2.48207e-314 0 0 0 
1.1792 58.1086 -11.1724 0.02 0.616908 4685.23 11392.1 0.518716 181 34 1 2.48207e-314 0 0 0 
1.21131 58.0498 -11.334 0.02 0.622725 4695.82 11311.1 0.51387 182 34 1 2.48207e-314 0 0 0 
1.2437 58.0216 -11.7545 0.02 0.629674 4704.14 11206.2 0.5082 183 35 1 2.48207e-314 0 0 0 
1.27642 58.0019 -12.3171 0.02 0.637928 4709.49 11073.7 0.501624 184 35 1 2.48207e-314 0 0 0 
1.30912 57.9761 -13.2858 0.02 0.647602 4711.05 10911.9 0.494131 185 35 1 2.48207e-314 0 0 0 
1.34141 57.9296 -14.6009 0.02 0.658772 4708 10720 0.485752 186 35 1 2.48207e-314 0 0 0 
1.37276 57.8377 -15.5111 0.02 0.671397 4699.4 10499.2 0.476618 187 36 1 2.48207e-314 0 0 0 
1.40199 57.6966 -12.4709 0.02 0.684964 4684.77 10259.2 0.467178 188 36 1 2.48207e-314 0 0 0 
1.43051 57.5984 -8.92985 0.02 0.70008 4665.71 9996.85 0.457091 189 37 1 2.48207e-314 0 0 0 
1.45897 57.5212 -6.31004 0.02 0.717259 4641.62 9707.03 0.446143 190 36 1 2.48207e-314 0 0 0 
1.48787 57.4863 -4.48283 0.02 0.737103 4612.5 9386.44 0.434132 191 37 1 2.48207e-314 0 0 0 
1.51605 57.4354 -2.33387 0.02 0.759103 4577.41 9045.08 0.42155 192 38 1 2.48207e-314 0 0 0 
1.54476 57.4282 -0.642613 0.02 0.784769 4536.64 8671.33 0.407763 193 38 1 2.48207e-314 0 0 0 
1.57276 57.334 -1.42148 0.02 0.813545 4487.22 8273.49 0.39334 194 38 1 2.48207e-314 0 0 0 
1.59717 57.1951 2.84645 0.02 0.842171 4434.06 7897.58 0.37997 195 39 1 2.48207e-314 0 0 0 
1.62034 57.1043 6.37016 0.02 0.872834 4379.43 7526.25 0.366622 196 39 1 2.48207e-314 0 0 0 
1.64295 57.079 7.79546 0.02 0.906459 4324.5 7156.17 0.353022 197 39 1 2.48207e-314 0 0 0 
1.66431 57.0979 9.12401 0.02 0.942063 4271.09 6800.64 0.33968 198 40 1 2.48207e-314 0 0 0 
1.68287 57.1168 10.7649 0.02 0.976437 4222.57 6486.71 0.327722 199 40 1 2.48207e-314 0 0 0 
1.71558 56.978 15.1801 0.02 1.04668 4123.43 5909.28 0.305729 200 40 1 2.48206e-314 0 0 0 
1.73223 56.9917 15.15 0.02 1.0881 4073.6 5615.63 0.29409 201 40 1 2.48206e-314 0 0 0 
1.74951 57.0211 14.1362 0.02 1.13577 4020.38 5309.67 0.281748 202 40 1 2.48206e-314 0 0 0 
1.76651 57.0322 13.5608 0.02 1.18807 3965.29 5006.36 0.269345 203 40 1 2.48206e-314 0 0 0 
1.78274 57.0108 13.9525 0.02 1.24394 3909.66 4714.4 0.257246 204 39 1 2.48206e-314 0 0 0 
1.79906 56.9757 14.2142 0.02 1.30695 3853.09 4422.2 0.244845 205 39 1 2.48206e-314 0 0 0 
1.81771 57.0349 10.0866 0.02 1.38861 3797.44 4102.01 0.230445 206 39 1 2.48206e-314 0 0 0 
1.8337 57.1109 9.58 0.02 1.46731 3751.63 3835.18 0.218086 207 39 1 2.48206e-314 0 0 0 
1.84749 57.1487 8.53168 0.02 1.54307 3711.04 3607.41 0.207378 208 38 1 2.48206e-314 0 0 0 
1.86065 57.2004 6.73765 0.02 1.62361 3674.62 3394.84 0.197092 209 38 1 2.48206e-314 0 0 0 
1.8726 57.2375 4.95326 0.02 1.70479 3642.33 3204.77 0.187707 210 37 1 2.48206e-314 0 0 0 
1.88373 57.2436 3.23843 0.02 1.78848 3611.96 3029.32 0.178922 211 37 1 2.48206e-314 0 0 0 
1.89551 57.2986 -1.30544 0.02 1.88662 3586.43 2851.45 0.169616 212 37 1 2.48206e-314 0 0 0 
1.90708 57.3862 -4.04281 0.02 1.99263 3566.89 2685.04 0.160592 213 36 1 2.48206e-314 0 0 0 
1.91787 57.4656 -5.90035 0.02 2.10052 3552.12 2536.59 0.152343 214 36 1 2.48206e-314 0 0 0 
