# Time [s]: 0.0337574
# Columns: pos [m], vel [m/s], acc [m/s^2], mass [kg], dens [kg/m^3], pres [Pa], ene [J/kg], sml [m], id, neighbor, alpha, gradh, ...additional?
# Additional arrays: grad_velocity_0(vector) grad_pressure(vector) grad_density(vector) 
-3.94534 7.56204 440.571 0.02 0.832026 7959.3 14349.4 0.384603 0 33 1 2.48207e-314 0 0 0 
-3.93047 6.54689 402.561 0.02 0.829936 7906.48 14290.1 0.385572 1 34 1 2.48207e-314 0 0 0 
-3.9134 5.86659 343.827 0.02 0.828323 7846.31 14209 0.386323 2 34 1 2.48207e-314 0 0 0 
-3.89443 5.51587 294.866 0.02 0.827308 7782.48 14110.7 0.386797 3 34 1 2.48207e-314 0 0 0 
-3.87379 5.47088 258.648 0.02 0.82695 7718.54 14000.8 0.386964 4 33 1 2.48207e-314 0 0 0 
-3.85159 5.73722 249.393 0.02 0.827244 7657.46 13885.1 0.386826 5 33 1 2.48207e-314 0 0 0 
-3.82772 6.36704 285.761 0.02 0.828083 7601.1 13768.9 0.386435 6 33 1 2.48207e-314 0 0 0 
-3.80181 7.5055 412.033 0.02 0.829134 7549.32 13657.7 0.385945 7 32 1 2.48207e-314 0 0 0 
-3.77389 9.08557 594.044 0.02 0.829666 7500.14 13560 0.385697 8 32 1 2.48207e-314 0 0 0 
-3.74805 10.1439 706.303 0.02 0.829458 7458.29 13487.7 0.385794 9 33 1 2.48207e-314 0 0 0 
-3.72385 10.7087 714.192 0.02 0.829146 7424.15 13431 0.385939 10 32 1 2.48207e-314 0 0 0 
-3.70023 11.126 702.879 0.02 0.828993 7396.39 13383.3 0.38601 11 32 1 2.48207e-314 0 0 0 
-3.67672 11.5436 702.437 0.02 0.828997 7373.32 13341.5 0.386009 12 31 1 2.48207e-314 0 0 0 
-3.6531 12.0095 717.759 0.02 0.829074 7353.42 13304.2 0.385973 13 31 1 2.48207e-314 0 0 0 
-3.62937 12.5183 744.672 0.02 0.829125 7335.42 13270.8 0.385949 14 31 1 2.48207e-314 0 0 0 
-3.60565 13.0253 772.975 0.02 0.829084 7318.49 13240.8 0.385968 15 31 1 2.48207e-314 0 0 0 
-3.58201 13.5323 811.332 0.02 0.828953 7302.17 13213.4 0.386029 16 32 1 2.48207e-314 0 0 0 
-3.55791 14.115 847.938 0.02 0.828696 7285.53 13187.3 0.386149 17 32 1 2.48207e-314 0 0 0 
-3.53351 14.7622 895.445 0.02 0.828216 7268.13 13163.4 0.386373 18 32 1 2.48207e-314 0 0 0 
-3.50905 15.3991 937.77 0.02 0.827484 7249.97 13142.2 0.386714 19 32 1 2.48207e-314 0 0 0 
-3.48465 15.999 971.058 0.02 0.826542 7231.31 13123.3 0.387155 20 31 1 2.48207e-314 0 0 0 
-3.46035 16.5572 996.176 0.02 0.825445 7212.37 13106.3 0.38767 21 31 1 2.48207e-314 0 0 0 
-3.43613 17.0785 1015.79 0.02 0.824246 7193.27 13090.6 0.388234 22 31 1 2.48207e-314 0 0 0 
-3.41198 17.5712 1032.02 0.02 0.822988 7174.06 13075.6 0.388827 23 31 1 2.48207e-314 0 0 0 
-3.38785 18.051 1047.34 0.02 0.821694 7154.65 13060.8 0.389439 24 32 1 2.48207e-314 0 0 0 
-3.36363 18.5458 1067.17 0.02 0.820363 7134.78 13045.6 0.390071 25 32 1 2.48207e-314 0 0 0 
-3.3393 19.0618 1091.98 0.02 0.818972 7114.18 13030 0.390734 26 32 1 2.48207e-314 0 0 0 
-3.31487 19.592 1119.41 0.02 0.817505 7092.72 13014.1 0.391435 27 32 1 2.48207e-314 0 0 0 
-3.29036 20.1268 1146.89 0.02 0.815954 7070.38 12997.7 0.392179 28 32 1 2.48207e-314 0 0 0 
-3.2658 20.6583 1172.54 0.02 0.814321 7047.22 12981.1 0.392965 29 32 1 2.48207e-314 0 0 0 
-3.24119 21.1824 1195.64 0.02 0.812618 7023.36 12964.3 0.393789 30 32 1 2.48207e-314 0 0 0 
-3.21654 21.6982 1216.4 0.02 0.810857 6998.88 12947.2 0.394644 31 32 1 2.48207e-314 0 0 0 
-3.19185 22.2066 1235.47 0.02 0.809049 6973.87 12929.7 0.395526 32 32 1 2.48207e-314 0 0 0 
-3.16712 22.709 1253.53 0.02 0.807203 6948.39 12912 0.396431 33 32 1 2.48207e-314 0 0 0 
-3.14234 23.2078 1271.24 0.02 0.805324 6922.45 12893.8 0.397355 34 32 1 2.48207e-314 0 0 0 
-3.1175 23.7051 1289.04 0.02 0.803416 6896.07 12875.2 0.398299 35 32 1 2.48207e-314 0 0 0 
-3.0926 24.2022 1307.04 0.02 0.801477 6869.24 12856.1 0.399263 36 32 1 2.48207e-314 0 0 0 
-3.06763 24.6994 1325.08 0.02 0.799507 6841.95 12836.6 0.400246 37 32 1 2.48207e-314 0 0 0 
-3.04259 25.1964 1342.9 0.02 0.797506 6814.21 12816.6 0.401251 38 32 1 2.48207e-314 0 0 0 
-3.01749 25.6923 1360.24 0.02 0.795473 6786.05 12796.3 0.402276 39 32 1 2.48207e-314 0 0 0 
-2.99231 26.1864 1376.82 0.02 0.793408 6757.48 12775.5 0.403323 40 32 1 2.48207e-314 0 0 0 
-2.96707 26.6775 1392.45 0.02 0.791314 6728.54 12754.5 0.40439 41 32 1 2.48207e-314 0 0 0 
-2.94177 27.1654 1407.08 0.02 0.789193 6699.27 12733.2 0.405477 42 32 1 2.48207e-314 0 0 0 
-2.91639 27.6501 1420.77 0.02 0.787047 6669.7 12711.5 0.406583 43 32 1 2.48207e-314 0 0 0 
-2.89095 28.1317 1433.66 0.02 0.784879 6639.84 12689.6 0.407706 44 32 1 2.48207e-314 0 0 0 
-2.86544 28.6108 1445.86 0.02 0.782689 6609.73 12667.4 0.408847 45 32 1 2.48207e-314 0 0 0 
-2.83986 29.0876 1457.45 0.02 0.780479 6579.37 12644.9 0.410004 46 32 1 2.48207e-314 0 0 0 
-2.81421 29.5623 1468.42 0.02 0.77825 6548.77 12622.1 0.411179 47 32 1 2.48207e-314 0 0 0 
-2.78848 30.0349 1478.74 0.02 0.776002 6517.96 12599.2 0.41237 48 32 1 2.48207e-314 0 0 0 
-2.76267 30.5052 1488.33 0.02 0.773735 6486.95 12576 0.413578 49 32 1 2.48207e-314 0 0 0 
-2.73679 30.9732 1497.13 0.02 0.771451 6455.75 12552.5 0.414803 50 32 1 2.48207e-314 0 0 0 
-2.71082 31.4387 1505.08 0.02 0.76915 6424.39 12528.9 0.416043 51 32 1 2.48207e-314 0 0 0 
-2.68479 31.9016 1512.16 0.02 0.766834 6392.87 12505.1 0.4173 52 32 1 2.48207e-314 0 0 0 
-2.65867 32.3618 1518.35 0.02 0.764504 6361.22 12481.1 0.418572 53 32 1 2.48207e-314 0 0 0 
-2.63247 32.8193 1523.65 0.02 0.762161 6329.47 12457 0.419859 54 32 1 2.48207e-314 0 0 0 
-2.60619 33.2741 1528.07 0.02 0.759807 6297.62 12432.7 0.42116 55 32 1 2.48207e-314 0 0 0 
-2.57982 33.7262 1531.62 0.02 0.757442 6265.69 12408.3 0.422475 56 32 1 2.48207e-314 0 0 0 
-2.55338 34.1757 1534.31 0.02 0.755068 6233.71 12383.8 0.423803 57 32 1 2.48207e-314 0 0 0 
-2.52685 34.6225 1536.13 0.02 0.752685 6201.68 12359.2 0.425144 58 32 1 2.48207e-314 0 0 0 
-2.50024 35.0666 1537.08 0.02 0.750296 6169.63 12334.5 0.426498 59 32 1 2.48207e-314 0 0 0 
-2.47354 35.5079 1537.16 0.02 0.747901 6137.57 12309.7 0.427864 60 32 1 2.48207e-314 0 0 0 
-2.44675 35.9465 1536.34 0.02 0.745501 6105.52 12284.8 0.429241 61 32 1 2.48207e-314 0 0 0 
-2.41988 36.3823 1534.63 0.02 0.743098 6073.49 12259.9 0.430629 62 32 1 2.48207e-314 0 0 0 
-2.39292 36.8152 1532.03 0.02 0.740693 6041.51 12235 0.432028 63 32 1 2.48207e-314 0 0 0 
-2.36587 37.2452 1528.53 0.02 0.738287 6009.59 12210 0.433436 64 32 1 2.48207e-314 0 0 0 
-2.33873 37.6722 1524.14 0.02 0.73588 5977.75 12185 0.434853 65 32 1 2.48207e-314 0 0 0 
-2.3115 38.0962 1518.88 0.02 0.733476 5946 12160 0.436279 66 32 1 2.48207e-314 0 0 0 
-2.28419 38.5171 1512.73 0.02 0.731074 5914.37 12135.1 0.437712 67 32 1 2.48207e-314 0 0 0 
-2.25678 38.9349 1505.73 0.02 0.728676 5882.86 12110.1 0.439152 68 32 1 2.48207e-314 0 0 0 
-2.22928 39.3495 1497.87 0.02 0.726284 5851.49 12085.3 0.440599 69 32 1 2.48207e-314 0 0 0 
-2.20169 39.761 1489.18 0.02 0.723898 5820.29 12060.4 0.442051 70 32 1 2.48207e-314 0 0 0 
-2.17401 40.1691 1479.65 0.02 0.721519 5789.26 12035.7 0.443509 71 32 1 2.48207e-314 0 0 0 
-2.14624 40.5738 1469.32 0.02 0.71915 5758.42 12011 0.44497 72 32 1 2.48207e-314 0 0 0 
-2.11838 40.9752 1458.18 0.02 0.71679 5727.79 11986.5 0.446435 73 32 1 2.48207e-314 0 0 0 
-2.09042 41.373 1446.26 0.02 0.714442 5697.39 11962 0.447902 74 32 1 2.48207e-314 0 0 0 
-2.06237 41.7672 1433.57 0.02 0.712106 5667.21 11937.7 0.449371 75 32 1 2.48207e-314 0 0 0 
-2.03423 42.1578 1420.14 0.02 0.709784 5637.29 11913.6 0.450842 76 32 1 2.48207e-314 0 0 0 
-2.006 42.5446 1405.98 0.02 0.707476 5607.64 11889.5 0.452312 77 32 1 2.48207e-314 0 0 0 
-1.97767 42.9276 1391.12 0.02 0.705184 5578.26 11865.7 0.453782 78 32 1 2.48207e-314 0 0 0 
-1.94925 43.3067 1375.58 0.02 0.70291 5549.18 11842 0.455251 79 32 1 2.48207e-314 0 0 0 
-1.92074 43.6817 1359.39 0.02 0.700653 5520.4 11818.6 0.456717 80 32 1 2.48207e-314 0 0 0 
-1.89214 44.0527 1342.58 0.02 0.698415 5491.94 11795.3 0.45818 81 32 1 2.48207e-314 0 0 0 
-1.86345 44.4195 1325.16 0.02 0.696197 5463.81 11772.3 0.45964 82 32 1 2.48207e-314 0 0 0 
-1.83466 44.7819 1307.17 0.02 0.694001 5436.01 11749.5 0.461094 83 32 1 2.48207e-314 0 0 0 
-1.80579 45.14 1288.63 0.02 0.691827 5408.57 11726.9 0.462544 84 32 1 2.48207e-314 0 0 0 
-1.77682 45.4937 1269.59 0.02 0.689675 5381.49 11704.6 0.463987 85 32 1 2.48207e-314 0 0 0 
-1.74776 45.8427 1250.07 0.02 0.687548 5354.79 11682.5 0.465422 86 32 1 2.48207e-314 0 0 0 
-1.71861 46.1871 1230.09 0.02 0.685445 5328.46 11660.8 0.46685 87 32 1 2.48207e-314 0 0 0 
-1.68937 46.5268 1209.7 0.02 0.683368 5302.53 11639.3 0.468269 88 32 1 2.48207e-314 0 0 0 
-1.66005 46.8616 1188.93 0.02 0.681318 5276.99 11618.1 0.469678 89 32 1 2.48207e-314 0 0 0 
-1.63063 47.1915 1167.81 0.02 0.679295 5251.87 11597.2 0.471077 90 32 1 2.48207e-314 0 0 0 
-1.60113 47.5164 1146.38 0.02 0.677299 5227.15 11576.6 0.472465 91 32 1 2.48207e-314 0 0 0 
-1.57154 47.8363 1124.66 0.02 0.675333 5202.86 11556.4 0.47384 92 32 1 2.48207e-314 0 0 0 
-1.54187 48.1509 1102.71 0.02 0.673396 5178.99 11536.4 0.475203 93 32 1 2.48207e-314 0 0 0 
-1.51211 48.4604 1080.55 0.02 0.671489 5155.55 11516.9 0.476553 94 32 1 2.48207e-314 0 0 0 
-1.48227 48.7645 1058.22 0.02 0.669612 5132.55 11497.6 0.477889 95 32 1 2.48207e-314 0 0 0 
-1.45234 49.0633 1035.75 0.02 0.667766 5109.99 11478.7 0.47921 96 32 1 2.48207e-314 0 0 0 
-1.42233 49.3567 1013.18 0.02 0.665952 5087.88 11460.2 0.480515 97 32 1 2.48207e-314 0 0 0 
-1.39224 49.6446 990.537 0.02 0.664169 5066.21 11442 0.481805 98 32 1 2.48207e-314 0 0 0 
-1.36207 49.927 967.863 0.02 0.662419 5044.99 11424.2 0.483078 99 32 1 2.48207e-314 0 0 0 
-1.33182 50.2039 945.187 0.02 0.660702 5024.23 11406.7 0.484334 100 32 1 2.48207e-314 0 0 0 
-1.30149 50.4751 922.54 0.02 0.659017 5003.91 11389.6 0.485572 101 32 1 2.48207e-314 0 0 0 
-1.27109 50.7408 899.95 0.02 0.657366 4984.05 11372.9 0.486792 102 32 1 2.48207e-314 0 0 0 
-1.24061 51.0008 877.449 0.02 0.655747 4964.64 11356.6 0.487993 103 32 1 2.48207e-314 0 0 0 
-1.21005 51.2552 855.063 0.02 0.654163 4945.69 11340.7 0.489175 104 32 1 2.48207e-314 0 0 0 
-1.17942 51.504 832.819 0.02 0.652612 4927.19 11325.1 0.490338 105 32 1 2.48207e-314 0 0 0 
-1.14872 51.7471 810.744 0.02 0.651094 4909.13 11309.9 0.49148 106 32 1 2.48207e-314 0 0 0 
-1.11795 51.9846 788.859 0.02 0.64961 4891.53 11295.1 0.492603 107 32 1 2.48207e-314 0 0 0 
-1.08711 52.2165 767.187 0.02 0.64816 4874.37 11280.6 0.493705 108 32 1 2.48207e-314 0 0 0 
-1.0562 52.4428 745.744 0.02 0.646744 4857.65 11266.6 0.494787 109 32 1 2.48207e-314 0 0 0 
-1.02522 52.6634 724.547 0.02 0.645361 4841.38 11252.9 0.495847 110 32 1 2.48207e-314 0 0 0 
-0.994182 52.8785 703.608 0.02 0.644011 4825.53 11239.5 0.496886 111 32 1 2.48207e-314 0 0 0 
-0.963076 53.088 682.938 0.02 0.642695 4810.12 11226.6 0.497903 112 32 1 2.48207e-314 0 0 0 
-0.931907 53.2921 662.545 0.02 0.641412 4795.14 11214 0.498899 113 32 1 2.48207e-314 0 0 0 
-0.900677 53.4907 642.437 0.02 0.640162 4780.58 11201.8 0.499874 114 32 1 2.48207e-314 0 0 0 
-0.869387 53.6839 622.621 0.02 0.638945 4766.43 11189.9 0.500826 115 32 1 2.48207e-314 0 0 0 
-0.838037 53.8718 603.105 0.02 0.63776 4752.7 11178.4 0.501756 116 32 1 2.48207e-314 0 0 0 
-0.806631 54.0544 583.894 0.02 0.636608 4739.37 11167.2 0.502664 117 32 1 2.48207e-314 0 0 0 
-0.775169 54.2318 564.993 0.02 0.635488 4726.44 11156.4 0.50355 118 32 1 2.48207e-314 0 0 0 
-0.743652 54.4039 546.405 0.02 0.6344 4713.9 11145.8 0.504413 119 32 1 2.48207e-314 0 0 0 
-0.712082 54.571 528.13 0.02 0.633344 4701.75 11135.7 0.505255 120 32 1 2.48207e-314 0 0 0 
-0.680461 54.7329 510.165 0.02 0.632318 4689.98 11125.8 0.506074 121 32 1 2.48207e-314 0 0 0 
-0.648789 54.8897 492.506 0.02 0.631324 4678.58 11116.2 0.506871 122 32 1 2.48207e-314 0 0 0 
-0.617069 55.0414 475.144 0.02 0.63036 4667.54 11106.9 0.507646 123 32 1 2.48207e-314 0 0 0 
-0.5853 55.1882 458.072 0.02 0.629427 4656.86 11098 0.508399 124 32 1 2.48207e-314 0 0 0 
-0.553486 55.3302 441.284 0.02 0.628524 4646.52 11089.2 0.50913 125 32 1 2.48207e-314 0 0 0 
-0.521626 55.4673 424.776 0.02 0.62765 4636.53 11080.8 0.509838 126 32 1 2.48207e-314 0 0 0 
-0.489722 55.5998 408.55 0.02 0.626806 4626.86 11072.6 0.510525 127 32 1 2.48207e-314 0 0 0 
-0.457776 55.7277 392.608 0.02 0.62599 4617.52 11064.6 0.511191 128 32 1 2.48207e-314 0 0 0 
-0.42579 55.851 376.956 0.02 0.625201 4608.49 11056.9 0.511835 129 32 1 2.48207e-314 0 0 0 
-0.393765 55.9698 361.601 0.02 0.62444 4599.76 11049.4 0.512459 130 32 1 2.48207e-314 0 0 0 
-0.361703 56.084 346.549 0.02 0.623706 4591.31 11042.1 0.513062 131 32 1 2.48207e-314 0 0 0 
-0.329605 56.1937 331.799 0.02 0.622997 4583.15 11035 0.513646 132 32 1 2.48207e-314 0 0 0 
-0.297472 56.299 317.352 0.02 0.622312 4575.25 11028.1 0.514211 133 32 1 2.48207e-314 0 0 0 
-0.265304 56.3998 303.203 0.02 0.621651 4567.61 11021.4 0.514758 134 32 1 2.48207e-314 0 0 0 
-0.233103 56.4963 289.347 0.02 0.621012 4560.22 11014.9 0.515288 135 32 1 2.48207e-314 0 0 0 
-0.20087 56.5886 275.781 0.02 0.620395 4553.06 11008.5 0.515801 136 32 1 2.48207e-314 0 0 0 
-0.168603 56.677 262.504 0.02 0.619796 4546.12 11002.4 0.516299 137 32 1 2.48207e-314 0 0 0 
-0.136307 56.7616 249.525 0.02 0.619214 4539.4 10996.4 0.516784 138 32 1 2.48207e-314 0 0 0 
-0.103981 56.8425 236.855 0.02 0.618647 4532.88 10990.7 0.517258 139 32 1 2.48207e-314 0 0 0 
-0.0716279 56.9197 224.512 0.02 0.618092 4526.56 10985.2 0.517722 140 32 1 2.48207e-314 0 0 0 
-0.0392499 56.9934 212.518 0.02 0.617547 4520.42 10980 0.518179 141 32 1 2.48207e-314 0 0 0 
-0.00684796 57.0636 200.893 0.02 0.617009 4514.47 10975.1 0.518631 142 32 1 2.48207e-314 0 0 0 
0.0255781 57.1302 189.654 0.02 0.616474 4508.7 10970.6 0.519081 143 32 1 2.48207e-314 0 0 0 
0.0580295 57.1935 178.809 0.02 0.615939 4503.1 10966.5 0.519532 144 32 1 2.48207e-314 0 0 0 
0.0905083 57.2535 168.354 0.02 0.615401 4497.67 10962.8 0.519986 145 32 1 2.48207e-314 0 0 0 
0.123016 57.3105 158.277 0.02 0.614856 4492.43 10959.8 0.520447 146 32 1 2.48207e-314 0 0 0 
0.155556 57.3648 148.564 0.02 0.6143 4487.38 10957.4 0.520918 147 32 1 2.48207e-314 0 0 0 
0.188126 57.4167 139.204 0.02 0.613728 4482.53 10955.7 0.521403 148 32 1 2.48207e-314 0 0 0 
0.220726 57.4664 130.195 0.02 0.613137 4477.92 10955 0.521906 149 32 1 2.48207e-314 0 0 0 
0.253354 57.5142 121.539 0.02 0.612523 4473.55 10955.3 0.522429 150 32 1 2.48207e-314 0 0 0 
0.286008 57.5601 113.24 0.02 0.611881 4469.46 10956.7 0.522978 151 32 1 2.48207e-314 0 0 0 
0.318687 57.6042 105.309 0.02 0.611208 4465.69 10959.6 0.523554 152 32 1 2.48207e-314 0 0 0 
0.351395 57.6466 97.7653 0.02 0.610501 4462.28 10963.9 0.52416 153 32 1 2.48207e-314 0 0 0 
0.384136 57.6873 90.6287 0.02 0.609757 4459.27 10969.8 0.524799 154 32 1 2.48207e-314 0 0 0 
0.416919 57.7267 83.9102 0.02 0.608975 4456.72 10977.6 0.525473 155 32 1 2.48207e-314 0 0 0 
0.449753 57.7651 77.6034 0.02 0.608153 4454.68 10987.4 0.526183 156 32 1 2.48207e-314 0 0 0 
0.482647 57.8029 71.6659 0.02 0.607292 4453.21 10999.4 0.52693 157 32 1 2.48207e-314 0 0 0 
0.515601 57.8401 66.0109 0.02 0.606392 4452.39 11013.7 0.527712 158 32 1 2.48207e-314 0 0 0 
0.54861 57.8761 60.5376 0.02 0.605457 4452.3 11030.4 0.528526 159 32 1 2.48207e-314 0 0 0 
0.581664 57.9106 55.2554 0.02 0.604493 4453 11049.8 0.529369 160 32 1 2.48207e-314 0 0 0 
0.614754 57.9437 50.1498 0.02 0.603509 4454.59 11071.8 0.530232 161 32 1 2.48207e-314 0 0 0 
0.647882 57.9759 45.2463 0.02 0.602514 4457.14 11096.4 0.531108 162 32 1 2.48207e-314 0 0 0 
0.681058 58.0081 40.6099 0.02 0.601521 4460.71 11123.6 0.531985 163 32 1 2.48207e-314 0 0 0 
0.714303 58.0408 36.2449 0.02 0.600543 4465.37 11153.4 0.532851 164 32 1 2.48207e-314 0 0 0 
0.747637 58.0738 32.0879 0.02 0.599596 4471.18 11185.5 0.533693 165 32 1 2.48207e-314 0 0 0 
0.78107 58.1059 28.1021 0.02 0.598702 4478.19 11219.8 0.53449 166 32 1 2.48207e-314 0 0 0 
0.814592 58.1355 24.2911 0.02 0.597886 4486.44 11255.8 0.535219 167 33 1 2.48207e-314 0 0 0 
0.848179 58.1618 20.6683 0.02 0.59718 4495.95 11293 0.535852 168 33 1 2.48207e-314 0 0 0 
0.881804 58.1843 17.1889 0.02 0.596615 4506.7 11330.7 0.536359 169 33 1 2.48207e-314 0 0 0 
0.915443 58.2031 14.0234 0.02 0.596227 4518.64 11368.1 0.536708 170 33 1 2.48207e-314 0 0 0 
0.94909 58.2196 10.7832 0.02 0.596053 4531.7 11404.3 0.536865 171 33 1 2.48207e-314 0 0 0 
0.982737 58.2311 7.10079 0.02 0.596137 4545.77 11438.1 0.536789 172 33 1 2.48207e-314 0 0 0 
1.01636 58.2347 3.22353 0.02 0.596531 4560.74 11468.2 0.536435 173 33 1 2.48207e-314 0 0 0 
1.04996 58.2341 -0.0466234 0.02 0.597294 4576.43 11492.9 0.53575 174 33 1 2.48207e-314 0 0 0 
1.08364 58.237 -2.53111 0.02 0.598487 4592.63 11510.6 0.534681 175 32 1 2.48207e-314 0 0 0 
1.11743 58.2426 -4.65826 0.02 0.600175 4609.11 11519.4 0.533178 176 33 1 2.48207e-314 0 0 0 
1.15127 58.2469 -6.55498 0.02 0.602421 4625.53 11517.3 0.53119 177 33 1 2.48207e-314 0 0 0 
1.18506 58.2439 -8.71077 0.02 0.605293 4641.53 11502.4 0.52867 178 33 1 2.48207e-314 0 0 0 
1.21861 58.2176 -11.1531 0.02 0.608856 4656.63 11472.2 0.525576 179 33 1 2.48207e-314 0 0 0 
1.25164 58.1618 -13.4033 0.02 0.613169 4670.26 11424.9 0.521879 180 34 1 2.48207e-314 0 0 0 
1.28403 58.0852 -14.2931 0.02 0.618283 4681.84 11358.5 0.517563 181 34 1 2.48207e-314 0 0 0 
1.31604 58.0267 -13.7592 0.02 0.624307 4691.19 11271.4 0.512568 182 34 1 2.48207e-314 0 0 0 
1.34838 57.9984 -13.4903 0.02 0.631474 4698.24 11160.2 0.506751 183 35 1 2.48207e-314 0 0 0 
1.38106 57.9784 -13.3792 0.02 0.639954 4702.28 11021.8 0.500036 184 35 1 2.48207e-314 0 0 0 
1.41371 57.9514 -13.8232 0.02 0.649848 4702.55 10854.6 0.492423 185 35 1 2.48207e-314 0 0 0 
1.44592 57.903 -14.5593 0.02 0.661219 4698.3 10658.3 0.483955 186 35 1 2.48207e-314 0 0 0 
1.4771 57.81 -15.0154 0.02 0.673995 4688.68 10434.9 0.474781 187 36 1 2.48207e-314 0 0 0 
1.50608 57.6746 -11.7359 0.02 0.68763 4673.47 10194.8 0.465366 188 36 1 2.48207e-314 0 0 0 
1.53443 57.5827 -8.32971 0.02 0.70281 4654.19 9933.41 0.455315 189 37 1 2.48207e-314 0 0 0 
1.56276 57.5103 -5.62599 0.02 0.720034 4630.16 9645.74 0.444423 190 36 1 2.48207e-314 0 0 0 
1.5916 57.4788 -3.67306 0.02 0.739934 4601.37 9327.96 0.432471 191 37 1 2.48207e-314 0 0 0 
1.61968 57.4319 -1.44739 0.02 0.761922 4567.06 8991.22 0.41999 192 37 1 2.48207e-314 0 0 0 
1.64839 57.4279 0.350178 0.02 0.787593 4527.39 8622.61 0.406301 193 38 1 2.48207e-314 0 0 0 
1.67621 57.3326 -0.058619 0.02 0.816147 4479.51 8232.94 0.392086 194 38 1 2.48207e-314 0 0 0 
1.70038 57.2011 3.81202 0.02 0.844366 4428.82 7867.74 0.378983 195 38 1 2.48207e-314 0 0 0 
1.72339 57.1163 6.9811 0.02 0.874615 4376.87 7506.53 0.365875 196 39 1 2.48207e-314 0 0 0 
1.74595 57.0932 8.07362 0.02 0.907882 4324.5 7144.93 0.352469 197 39 1 2.48207e-314 0 0 0 
1.76736 57.1143 9.17605 0.02 0.943183 4273.5 6796.4 0.339277 198 39 1 2.48207e-314 0 0 0 
1.78595 57.1364 11.0078 0.02 0.97723 4227.27 6488.65 0.327456 199 40 1 2.48207e-314 0 0 0 
1.81842 57.005 14.788 0.02 1.04597 4133.85 5928.26 0.305937 200 40 1 2.48206e-314 0 0 0 
1.8351 57.0186 14.6886 0.02 1.08676 4086.28 5640.09 0.294454 201 40 1 2.48206e-314 0 0 0 
1.85243 57.0461 13.6639 0.02 1.13371 4035.34 5339.07 0.282258 202 39 1 2.48206e-314 0 0 0 
1.86944 57.0562 13.093 0.02 1.18509 3982.68 5040.98 0.270022 203 39 1 2.48206e-314 0 0 0 
1.88564 57.0356 13.6617 0.02 1.23969 3929.69 4754.83 0.25813 204 39 1 2.48206e-314 0 0 0 
1.90189 57.0011 14.0674 0.02 1.30103 3875.7 4468.39 0.245959 205 39 1 2.48206e-314 0 0 0 
1.92065 57.0535 10.5595 0.02 1.38116 3821.51 4150.29 0.231689 206 39 1 2.48206e-314 0 0 0 
1.93677 57.1288 10.2265 0.02 1.45857 3777 3884.25 0.219393 207 39 1 2.48206e-314 0 0 0 
1.95063 57.165 9.41709 0.02 1.53276 3737.45 3657.55 0.208774 208 38 1 2.48206e-314 0 0 0 
1.96388 57.2135 7.81271 0.02 1.61172 3701.65 3445.05 0.198546 209 38 1 2.48206e-314 0 0 0 
1.97589 57.2474 5.95673 0.02 1.69114 3669.76 3254.96 0.189221 210 37 1 2.48206e-314 0 0 0 
1.98703 57.2509 4.8356 0.02 1.77257 3639.65 3079.96 0.180529 211 37 1 2.48206e-314 0 0 0 
1.9989 57.2982 0.74614 0.02 1.86868 3613.57 2900.61 0.171244 212 37 1 2.48206e-314 0 0 0 
2.01063 57.381 -1.76253 0.02 1.97313 3593.29 2731.64 0.162179 213 36 1 2.48206e-314 0 0 0 
2.02155 57.4573 -3.36411 0.02 2.0795 3577.62 2580.62 0.153883 214 36 1 2.48206e-314 0 0 0 
