# Time [s]: 0.0328552
# Columns: pos [m], vel [m/s], acc [m/s^2], mass [kg], dens [kg/m^3], pres [Pa], ene [J/kg], sml [m], id, neighbor, alpha, gradh, ...additional?
# Additional arrays: grad_velocity_0(vector) grad_pressure(vector) grad_density(vector) 
-3.95198 7.13165 513.178 0.02 0.852225 8175.1 14389.2 0.375488 0 33 1 2.48207e-314 0 0 0 
-3.93621 6.16428 446.944 0.02 0.850042 8123.76 14335.5 0.376452 1 34 1 2.48207e-314 0 0 0 
-3.91855 5.53961 381.86 0.02 0.848422 8067.27 14263 0.377171 2 34 1 2.48207e-314 0 0 0 
-3.89928 5.23464 329.448 0.02 0.847429 8008.69 14176 0.377613 3 34 1 2.48207e-314 0 0 0 
-3.87861 5.22063 297.149 0.02 0.847069 7950.84 14079.6 0.377773 4 33 1 2.48207e-314 0 0 0 
-3.85666 5.49191 295.467 0.02 0.847297 7895.98 13978.7 0.377672 5 33 1 2.48207e-314 0 0 0 
-3.83334 6.08514 340.194 0.02 0.847975 7845.33 13877.9 0.37737 6 33 1 2.48207e-314 0 0 0 
-3.80841 7.1091 467.476 0.02 0.848779 7798.48 13781.9 0.377012 7 32 1 2.48207e-314 0 0 0 
-3.78184 8.52465 649.929 0.02 0.84907 7753.32 13697.4 0.376883 8 32 1 2.48207e-314 0 0 0 
-3.75691 9.48222 760.866 0.02 0.848698 7713.73 13633.4 0.377048 9 33 1 2.48207e-314 0 0 0 
-3.73321 10.0362 777.137 0.02 0.848218 7680.56 13582.4 0.377261 10 33 1 2.48207e-314 0 0 0 
-3.70998 10.4601 773.552 0.02 0.847853 7652.94 13539.4 0.377424 11 31 1 2.48207e-314 0 0 0 
-3.68684 10.876 778.102 0.02 0.847608 7629.48 13501.8 0.377533 12 31 1 2.48207e-314 0 0 0 
-3.66364 11.3266 796.512 0.02 0.847415 7608.81 13468.3 0.377619 13 31 1 2.48207e-314 0 0 0 
-3.64035 11.8101 825.554 0.02 0.847193 7589.78 13438.1 0.377718 14 31 1 2.48207e-314 0 0 0 
-3.61708 12.291 855.271 0.02 0.846887 7571.62 13410.8 0.377854 15 31 1 2.48207e-314 0 0 0 
-3.59388 12.7638 892.661 0.02 0.846505 7553.94 13385.5 0.378025 16 32 1 2.48207e-314 0 0 0 
-3.57029 13.3122 932.049 0.02 0.846012 7535.84 13361.2 0.378245 17 32 1 2.48207e-314 0 0 0 
-3.54645 13.9157 981.294 0.02 0.84532 7516.88 13338.5 0.378555 18 32 1 2.48207e-314 0 0 0 
-3.52255 14.5132 1026.09 0.02 0.844404 7497.06 13317.7 0.378966 19 32 1 2.48207e-314 0 0 0 
-3.49868 15.0816 1062.76 0.02 0.843295 7476.59 13298.8 0.379464 20 31 1 2.48207e-314 0 0 0 
-3.47487 15.6155 1091.53 0.02 0.842042 7455.67 13281.4 0.380029 21 31 1 2.48207e-314 0 0 0 
-3.45111 16.1175 1114.49 0.02 0.840689 7434.46 13264.9 0.38064 22 31 1 2.48207e-314 0 0 0 
-3.4274 16.5943 1133.54 0.02 0.839275 7413.01 13248.9 0.381281 23 32 1 2.48207e-314 0 0 0 
-3.4037 17.0592 1151.45 0.02 0.837823 7391.28 13232.9 0.381942 24 32 1 2.48207e-314 0 0 0 
-3.37992 17.5353 1173.17 0.02 0.836333 7369.07 13216.7 0.382623 25 32 1 2.48207e-314 0 0 0 
-3.35604 18.0282 1199.35 0.02 0.834789 7346.15 13199.9 0.38333 26 32 1 2.48207e-314 0 0 0 
-3.33208 18.5331 1228 0.02 0.833175 7322.39 13182.8 0.384073 27 32 1 2.48207e-314 0 0 0 
-3.30804 19.0425 1256.76 0.02 0.831484 7297.79 13165.2 0.384854 28 32 1 2.48207e-314 0 0 0 
-3.28395 19.5502 1283.95 0.02 0.82972 7272.38 13147.2 0.385672 29 32 1 2.48207e-314 0 0 0 
-3.2598 20.0526 1308.86 0.02 0.827889 7246.25 13129 0.386525 30 32 1 2.48207e-314 0 0 0 
-3.23561 20.5487 1331.56 0.02 0.826001 7219.49 13110.4 0.387409 31 32 1 2.48207e-314 0 0 0 
-3.21137 21.0391 1352.53 0.02 0.824067 7192.18 13091.5 0.388318 32 32 1 2.48207e-314 0 0 0 
-3.18708 21.5244 1372.31 0.02 0.822093 7164.38 13072.2 0.389251 33 32 1 2.48207e-314 0 0 0 
-3.16274 22.0065 1391.47 0.02 0.820085 7136.1 13052.5 0.390204 34 32 1 2.48207e-314 0 0 0 
-3.13835 22.4872 1410.44 0.02 0.818045 7107.38 13032.3 0.391176 35 32 1 2.48207e-314 0 0 0 
-3.11388 22.9676 1429.38 0.02 0.815975 7078.2 13011.8 0.392169 36 32 1 2.48207e-314 0 0 0 
-3.08936 23.4482 1448.2 0.02 0.813874 7048.57 12990.8 0.393181 37 32 1 2.48207e-314 0 0 0 
-3.06476 23.9288 1466.71 0.02 0.811741 7018.5 12969.3 0.394214 38 32 1 2.48207e-314 0 0 0 
-3.0401 24.4088 1484.68 0.02 0.809577 6988.01 12947.5 0.395268 39 32 1 2.48207e-314 0 0 0 
-3.01536 24.8875 1501.87 0.02 0.807381 6957.11 12925.3 0.396343 40 32 1 2.48207e-314 0 0 0 
-2.99056 25.3643 1518.09 0.02 0.805156 6925.85 12902.8 0.397439 41 32 1 2.48207e-314 0 0 0 
-2.96569 25.8388 1533.25 0.02 0.802903 6894.25 12880 0.398554 42 32 1 2.48207e-314 0 0 0 
-2.94075 26.3108 1547.42 0.02 0.800625 6862.34 12856.9 0.399688 43 32 1 2.48207e-314 0 0 0 
-2.91574 26.7807 1560.69 0.02 0.798323 6830.15 12833.4 0.40084 44 32 1 2.48207e-314 0 0 0 
-2.89065 27.2486 1573.15 0.02 0.796 6797.69 12809.7 0.40201 45 32 1 2.48207e-314 0 0 0 
-2.8655 27.7149 1584.88 0.02 0.793656 6764.99 12785.8 0.403197 46 32 1 2.48207e-314 0 0 0 
-2.84026 28.1797 1595.88 0.02 0.791292 6732.06 12761.6 0.404402 47 32 1 2.48207e-314 0 0 0 
-2.81496 28.6429 1606.14 0.02 0.788908 6698.92 12737.1 0.405624 48 32 1 2.48207e-314 0 0 0 
-2.78957 29.1047 1615.61 0.02 0.786506 6665.57 12712.4 0.406863 49 32 1 2.48207e-314 0 0 0 
-2.7641 29.5648 1624.23 0.02 0.784087 6632.05 12687.5 0.408118 50 32 1 2.48207e-314 0 0 0 
-2.73856 30.0232 1631.96 0.02 0.781651 6598.37 12662.4 0.40939 51 32 1 2.48207e-314 0 0 0 
-2.71294 30.4798 1638.78 0.02 0.7792 6564.54 12637.1 0.410677 52 32 1 2.48207e-314 0 0 0 
-2.68723 30.9345 1644.68 0.02 0.776735 6530.58 12611.7 0.411981 53 32 1 2.48207e-314 0 0 0 
-2.66144 31.3874 1649.64 0.02 0.774257 6496.52 12586 0.4133 54 32 1 2.48207e-314 0 0 0 
-2.63557 31.8384 1653.68 0.02 0.771767 6462.37 12560.3 0.414633 55 32 1 2.48207e-314 0 0 0 
-2.60961 32.2875 1656.82 0.02 0.769266 6428.16 12534.4 0.415981 56 32 1 2.48207e-314 0 0 0 
-2.58357 32.7347 1659.05 0.02 0.766757 6393.89 12508.4 0.417342 57 32 1 2.48207e-314 0 0 0 
-2.55744 33.1801 1660.38 0.02 0.764239 6359.59 12482.3 0.418717 58 32 1 2.48207e-314 0 0 0 
-2.53123 33.6236 1660.82 0.02 0.761714 6325.27 12456.1 0.420105 59 32 1 2.48207e-314 0 0 0 
-2.50493 34.0651 1660.36 0.02 0.759184 6290.95 12429.8 0.421505 60 32 1 2.48207e-314 0 0 0 
-2.47854 34.5047 1659 0.02 0.756648 6256.65 12403.4 0.422918 61 32 1 2.48207e-314 0 0 0 
-2.45206 34.9423 1656.73 0.02 0.75411 6222.38 12377 0.424342 62 32 1 2.48207e-314 0 0 0 
-2.42549 35.3778 1653.56 0.02 0.751568 6188.16 12350.6 0.425776 63 32 1 2.48207e-314 0 0 0 
-2.39883 35.8112 1649.49 0.02 0.749026 6154.01 12324.1 0.427221 64 32 1 2.48207e-314 0 0 0 
-2.37208 36.2424 1644.52 0.02 0.746484 6119.95 12297.7 0.428676 65 32 1 2.48207e-314 0 0 0 
-2.34524 36.6714 1638.68 0.02 0.743944 6085.98 12271.2 0.43014 66 32 1 2.48207e-314 0 0 0 
-2.31831 37.0982 1631.95 0.02 0.741406 6052.14 12244.7 0.431613 67 32 1 2.48207e-314 0 0 0 
-2.29128 37.5226 1624.37 0.02 0.738871 6018.43 12218.3 0.433093 68 32 1 2.48207e-314 0 0 0 
-2.26416 37.9446 1615.93 0.02 0.736342 5984.87 12191.9 0.434581 69 32 1 2.48207e-314 0 0 0 
-2.23694 38.3641 1606.66 0.02 0.733819 5951.48 12165.6 0.436075 70 32 1 2.48207e-314 0 0 0 
-2.20964 38.7811 1596.55 0.02 0.731303 5918.27 12139.3 0.437575 71 32 1 2.48207e-314 0 0 0 
-2.18223 39.1955 1585.64 0.02 0.728795 5885.26 12113.1 0.439081 72 32 1 2.48207e-314 0 0 0 
-2.15474 39.6072 1573.92 0.02 0.726297 5852.46 12087.1 0.440591 73 32 1 2.48207e-314 0 0 0 
-2.12714 40.016 1561.42 0.02 0.72381 5819.89 12061.1 0.442105 74 32 1 2.48207e-314 0 0 0 
-2.09946 40.422 1548.15 0.02 0.721336 5787.56 12035.3 0.443622 75 32 1 2.48207e-314 0 0 0 
-2.07167 40.825 1534.13 0.02 0.718874 5755.49 12009.6 0.445141 76 32 1 2.48207e-314 0 0 0 
-2.0438 41.2249 1519.39 0.02 0.716426 5723.69 11984 0.446662 77 32 1 2.48207e-314 0 0 0 
-2.01582 41.6216 1503.93 0.02 0.713994 5692.18 11958.6 0.448183 78 32 1 2.48207e-314 0 0 0 
-1.98775 42.015 1487.78 0.02 0.711578 5660.96 11933.4 0.449705 79 32 1 2.48207e-314 0 0 0 
-1.95959 42.4049 1470.96 0.02 0.70918 5630.05 11908.4 0.451225 80 32 1 2.48207e-314 0 0 0 
-1.93133 42.7914 1453.5 0.02 0.7068 5599.47 11883.6 0.452745 81 32 1 2.48207e-314 0 0 0 
-1.90297 43.1742 1435.42 0.02 0.70444 5569.22 11859 0.454261 82 32 1 2.48207e-314 0 0 0 
-1.87452 43.5532 1416.74 0.02 0.702101 5539.32 11834.6 0.455775 83 32 1 2.48207e-314 0 0 0 
-1.84597 43.9284 1397.49 0.02 0.699784 5509.78 11810.5 0.457284 84 32 1 2.48207e-314 0 0 0 
-1.81733 44.2996 1377.71 0.02 0.697489 5480.6 11786.6 0.458789 85 32 1 2.48207e-314 0 0 0 
-1.7886 44.6666 1357.41 0.02 0.695217 5451.81 11763 0.460288 86 32 1 2.48207e-314 0 0 0 
-1.75977 45.0294 1336.62 0.02 0.692971 5423.41 11739.7 0.46178 87 32 1 2.48207e-314 0 0 0 
-1.73085 45.3879 1315.38 0.02 0.69075 5395.41 11716.6 0.463265 88 32 1 2.48207e-314 0 0 0 
-1.70183 45.7419 1293.72 0.02 0.688555 5367.82 11693.8 0.464742 89 32 1 2.48207e-314 0 0 0 
-1.67272 46.0913 1271.66 0.02 0.686387 5340.64 11671.4 0.466209 90 32 1 2.48207e-314 0 0 0 
-1.64352 46.436 1249.24 0.02 0.684247 5313.89 11649.2 0.467667 91 32 1 2.48207e-314 0 0 0 
-1.61423 46.7759 1226.5 0.02 0.682136 5287.58 11627.4 0.469114 92 32 1 2.48207e-314 0 0 0 
-1.58485 47.1109 1203.47 0.02 0.680055 5261.7 11605.9 0.47055 93 32 1 2.48207e-314 0 0 0 
-1.55538 47.4409 1180.18 0.02 0.678004 5236.28 11584.8 0.471974 94 32 1 2.48207e-314 0 0 0 
-1.52582 47.7657 1156.67 0.02 0.675983 5211.3 11564 0.473385 95 32 1 2.48207e-314 0 0 0 
-1.49617 48.0854 1132.97 0.02 0.673994 5186.78 11543.6 0.474782 96 32 1 2.48207e-314 0 0 0 
-1.46644 48.3997 1109.13 0.02 0.672037 5162.73 11523.5 0.476164 97 32 1 2.48207e-314 0 0 0 
-1.43661 48.7087 1085.16 0.02 0.670113 5139.14 11503.8 0.477532 98 32 1 2.48207e-314 0 0 0 
-1.40671 49.0122 1061.12 0.02 0.668221 5116.02 11484.4 0.478883 99 32 1 2.48207e-314 0 0 0 
-1.37672 49.3101 1037.02 0.02 0.666363 5093.37 11465.5 0.480219 100 32 1 2.48207e-314 0 0 0 
-1.34664 49.6025 1012.92 0.02 0.664539 5071.2 11446.9 0.481537 101 32 1 2.48207e-314 0 0 0 
-1.31649 49.8892 988.829 0.02 0.662749 5049.5 11428.7 0.482837 102 32 1 2.48207e-314 0 0 0 
-1.28625 50.1702 964.795 0.02 0.660993 5028.29 11410.9 0.48412 103 32 1 2.48207e-314 0 0 0 
-1.25593 50.4456 940.846 0.02 0.659273 5007.55 11393.5 0.485383 104 32 1 2.48207e-314 0 0 0 
-1.22554 50.7151 917.013 0.02 0.657587 4987.28 11376.5 0.486628 105 32 1 2.48207e-314 0 0 0 
-1.19507 50.9789 893.327 0.02 0.655936 4967.5 11359.9 0.487852 106 32 1 2.48207e-314 0 0 0 
-1.16452 51.2369 869.815 0.02 0.654321 4948.19 11343.7 0.489057 107 32 1 2.48207e-314 0 0 0 
-1.1339 51.489 846.504 0.02 0.65274 4929.35 11327.8 0.490241 108 32 1 2.48207e-314 0 0 0 
-1.1032 51.7354 823.416 0.02 0.651195 4910.99 11312.4 0.491404 109 32 1 2.48207e-314 0 0 0 
-1.07243 51.9759 800.571 0.02 0.649686 4893.09 11297.4 0.492546 110 32 1 2.48207e-314 0 0 0 
-1.04159 52.2106 777.988 0.02 0.648211 4875.66 11282.7 0.493666 111 32 1 2.48207e-314 0 0 0 
-1.01069 52.4395 755.683 0.02 0.646772 4858.69 11268.5 0.494765 112 32 1 2.48207e-314 0 0 0 
-0.979709 52.6627 733.668 0.02 0.645368 4842.18 11254.6 0.495841 113 32 1 2.48207e-314 0 0 0 
-0.948666 52.8801 711.958 0.02 0.643999 4826.12 11241.1 0.496895 114 32 1 2.48207e-314 0 0 0 
-0.917559 53.0919 690.563 0.02 0.642665 4810.51 11228 0.497927 115 32 1 2.48207e-314 0 0 0 
-0.886387 53.2981 669.495 0.02 0.641365 4795.34 11215.3 0.498936 116 32 1 2.48207e-314 0 0 0 
-0.855153 53.4987 648.763 0.02 0.6401 4780.6 11202.9 0.499922 117 32 1 2.48207e-314 0 0 0 
-0.823859 53.6938 628.375 0.02 0.638868 4766.29 11190.9 0.500886 118 32 1 2.48207e-314 0 0 0 
-0.792505 53.8834 608.334 0.02 0.637671 4752.41 11179.3 0.501826 119 32 1 2.48207e-314 0 0 0 
-0.761094 54.0675 588.642 0.02 0.636507 4738.94 11168 0.502744 120 32 1 2.48207e-314 0 0 0 
-0.729626 54.2463 569.296 0.02 0.635376 4725.87 11157 0.503639 121 32 1 2.48207e-314 0 0 0 
-0.698103 54.4196 550.29 0.02 0.634279 4713.21 11146.3 0.50451 122 32 1 2.48207e-314 0 0 0 
-0.666527 54.5876 531.615 0.02 0.633213 4700.94 11136 0.505359 123 32 1 2.48207e-314 0 0 0 
-0.634898 54.7504 513.264 0.02 0.632181 4689.05 11126 0.506184 124 32 1 2.48207e-314 0 0 0 
-0.603218 54.908 495.227 0.02 0.63118 4677.54 11116.3 0.506987 125 32 1 2.48207e-314 0 0 0 
-0.571489 55.0606 477.503 0.02 0.630211 4666.39 11106.8 0.507767 126 32 1 2.48207e-314 0 0 0 
-0.539711 55.2083 460.087 0.02 0.629272 4655.6 11097.7 0.508524 127 32 1 2.48207e-314 0 0 0 
-0.507888 55.351 442.984 0.02 0.628364 4645.16 11088.8 0.509259 128 32 1 2.48207e-314 0 0 0 
-0.476019 55.489 426.196 0.02 0.627486 4635.05 11080.1 0.509971 129 32 1 2.48207e-314 0 0 0 
-0.444108 55.6221 409.725 0.02 0.626637 4625.27 11071.7 0.510662 130 32 1 2.48207e-314 0 0 0 
-0.412155 55.7504 393.572 0.02 0.625816 4615.81 11063.6 0.511332 131 32 1 2.48207e-314 0 0 0 
-0.380162 55.8739 377.734 0.02 0.625022 4606.64 11055.6 0.511982 132 32 1 2.48207e-314 0 0 0 
-0.34813 55.9927 362.203 0.02 0.624255 4597.77 11047.9 0.512611 133 32 1 2.48207e-314 0 0 0 
-0.31606 56.1068 346.971 0.02 0.623513 4589.18 11040.4 0.513221 134 32 1 2.48207e-314 0 0 0 
-0.283951 56.2163 332.026 0.02 0.622796 4580.86 11033.1 0.513812 135 32 1 2.48207e-314 0 0 0 
-0.251807 56.3213 317.364 0.02 0.622101 4572.8 11025.9 0.514386 136 32 1 2.48207e-314 0 0 0 
-0.219626 56.4222 302.984 0.02 0.621428 4564.99 11019 0.514943 137 32 1 2.48207e-314 0 0 0 
-0.187411 56.519 288.891 0.02 0.620774 4557.41 11012.3 0.515486 138 32 1 2.48207e-314 0 0 0 
-0.155163 56.6118 275.099 0.02 0.620137 4550.06 11005.9 0.516015 139 32 1 2.48207e-314 0 0 0 
-0.122885 56.7007 261.628 0.02 0.619514 4542.93 10999.7 0.516534 140 32 1 2.48207e-314 0 0 0 
-0.0905786 56.7857 248.499 0.02 0.618904 4536.01 10993.7 0.517043 141 32 1 2.48207e-314 0 0 0 
-0.0582448 56.8669 235.733 0.02 0.618302 4529.3 10988.1 0.517546 142 32 1 2.48207e-314 0 0 0 
-0.0258835 56.9442 223.347 0.02 0.617707 4522.78 10982.9 0.518045 143 32 1 2.48207e-314 0 0 0 
0.00650623 57.0177 211.346 0.02 0.617115 4516.46 10978.1 0.518542 144 32 1 2.48207e-314 0 0 0 
0.0389264 57.0877 199.724 0.02 0.616522 4510.33 10973.7 0.519041 145 32 1 2.48207e-314 0 0 0 
0.071379 57.1543 188.471 0.02 0.615925 4504.4 10969.9 0.519544 146 32 1 2.48207e-314 0 0 0 
0.103865 57.2179 177.57 0.02 0.61532 4498.68 10966.7 0.520054 147 32 1 2.48207e-314 0 0 0 
0.136385 57.2788 167.015 0.02 0.614703 4493.18 10964.3 0.520577 148 32 1 2.48207e-314 0 0 0 
0.168936 57.3372 156.805 0.02 0.614069 4487.92 10962.8 0.521114 149 32 1 2.48207e-314 0 0 0 
0.201517 57.3933 146.951 0.02 0.613414 4482.93 10962.3 0.52167 150 32 1 2.48207e-314 0 0 0 
0.234126 57.4473 137.467 0.02 0.612735 4478.23 10962.9 0.522249 151 32 1 2.48207e-314 0 0 0 
0.266762 57.4991 128.371 0.02 0.612027 4473.86 10964.9 0.522853 152 32 1 2.48207e-314 0 0 0 
0.299428 57.5487 119.685 0.02 0.611288 4469.86 10968.3 0.523485 153 32 1 2.48207e-314 0 0 0 
0.33213 57.5964 111.432 0.02 0.610515 4466.26 10973.4 0.524148 154 32 1 2.48207e-314 0 0 0 
0.364874 57.6424 103.62 0.02 0.609705 4463.13 10980.3 0.524844 155 32 1 2.48207e-314 0 0 0 
0.397671 57.6869 96.2409 0.02 0.608858 4460.52 10989.1 0.525574 156 32 1 2.48207e-314 0 0 0 
0.430528 57.7305 89.2541 0.02 0.607972 4458.48 11000.1 0.52634 157 32 1 2.48207e-314 0 0 0 
0.463447 57.7732 82.5754 0.02 0.60705 4457.1 11013.4 0.52714 158 32 1 2.48207e-314 0 0 0 
0.496421 57.8146 76.1011 0.02 0.606093 4456.45 11029.2 0.527972 159 32 1 2.48207e-314 0 0 0 
0.529441 57.8543 69.8264 0.02 0.605107 4456.61 11047.5 0.528832 160 32 1 2.48207e-314 0 0 0 
0.562499 57.8925 63.7685 0.02 0.6041 4457.67 11068.6 0.529714 161 32 1 2.48207e-314 0 0 0 
0.595596 57.9295 57.9478 0.02 0.603082 4459.69 11092.3 0.530608 162 32 1 2.48207e-314 0 0 0 
0.628741 57.9663 52.439 0.02 0.602063 4462.76 11118.7 0.531506 163 32 1 2.48207e-314 0 0 0 
0.661954 58.0033 47.2568 0.02 0.601057 4466.93 11147.7 0.532395 164 32 1 2.48207e-314 0 0 0 
0.695257 58.0404 42.3392 0.02 0.600079 4472.28 11179.2 0.533263 165 32 1 2.48207e-314 0 0 0 
0.72866 58.0763 37.6254 0.02 0.599151 4478.85 11213 0.534089 166 32 1 2.48207e-314 0 0 0 
0.762153 58.1097 33.1227 0.02 0.598296 4486.69 11248.7 0.534852 167 33 1 2.48207e-314 0 0 0 
0.795715 58.1396 28.8134 0.02 0.597547 4495.84 11285.8 0.535523 168 33 1 2.48207e-314 0 0 0 
0.829318 58.1655 24.6625 0.02 0.596934 4506.27 11323.6 0.536073 169 33 1 2.48207e-314 0 0 0 
0.862939 58.1875 20.7988 0.02 0.596492 4517.96 11361.3 0.53647 170 33 1 2.48207e-314 0 0 0 
0.89657 58.2072 16.9572 0.02 0.596259 4530.82 11398.1 0.53668 171 33 1 2.48207e-314 0 0 0 
0.930204 58.2223 12.6704 0.02 0.596277 4544.77 11432.9 0.536663 172 33 1 2.48207e-314 0 0 0 
0.963821 58.2297 8.18087 0.02 0.596599 4559.7 11464.2 0.536373 173 33 1 2.48207e-314 0 0 0 
0.997421 58.2323 4.29961 0.02 0.597284 4575.43 11490.6 0.535759 174 33 1 2.48207e-314 0 0 0 
1.03109 58.2377 1.25976 0.02 0.598392 4591.76 11510.2 0.534766 175 33 1 2.48207e-314 0 0 0 
1.06488 58.2453 -1.33035 0.02 0.599988 4608.45 11521.3 0.533344 176 33 1 2.48207e-314 0 0 0 
1.09871 58.2515 -3.65369 0.02 0.602137 4625.17 11521.9 0.53144 177 33 1 2.48207e-314 0 0 0 
1.13251 58.2507 -6.21339 0.02 0.604907 4641.55 11509.8 0.529007 178 33 1 2.48207e-314 0 0 0 
1.16608 58.2268 -9.07193 0.02 0.608365 4657.12 11482.7 0.526 179 33 1 2.48207e-314 0 0 0 
1.19916 58.1732 -11.7486 0.02 0.612573 4671.29 11438.5 0.522386 180 34 1 2.48207e-314 0 0 0 
1.23162 58.0976 -13.1045 0.02 0.617587 4683.48 11375.3 0.518146 181 34 1 2.48207e-314 0 0 0 
1.26368 58.0388 -12.8806 0.02 0.62351 4693.44 11291.2 0.513223 182 34 1 2.48207e-314 0 0 0 
1.29605 58.0104 -12.9218 0.02 0.630571 4701.11 11183 0.507477 183 35 1 2.48207e-314 0 0 0 
1.32875 57.9904 -13.1088 0.02 0.63894 4705.8 11047.5 0.500829 184 35 1 2.48207e-314 0 0 0 
1.36142 57.9639 -13.7841 0.02 0.648727 4706.69 10882.9 0.493274 185 35 1 2.48207e-314 0 0 0 
1.39367 57.9163 -14.7789 0.02 0.660001 4703.03 10688.7 0.484848 186 35 1 2.48207e-314 0 0 0 
1.42493 57.8237 -15.4338 0.02 0.672704 4693.9 10466.5 0.475692 187 36 1 2.48207e-314 0 0 0 
1.45404 57.6854 -12.2474 0.02 0.686308 4678.96 10226.4 0.466263 188 36 1 2.48207e-314 0 0 0 
1.48247 57.5904 -8.75925 0.02 0.701458 4659.78 9964.53 0.456193 189 37 1 2.48207e-314 0 0 0 
1.51087 57.5156 -6.08378 0.02 0.718661 4635.71 9675.77 0.445273 190 36 1 2.48207e-314 0 0 0 
1.53974 57.4823 -4.17412 0.02 0.738535 4606.75 9356.58 0.43329 191 37 1 2.48207e-314 0 0 0 
1.56787 57.4334 -1.98645 0.02 0.760529 4572.05 9017.55 0.42076 192 37 1 2.48207e-314 0 0 0 
1.59658 57.4278 -0.220098 0.02 0.786199 4531.84 8646.41 0.407022 193 38 1 2.48207e-314 0 0 0 
1.62449 57.333 -0.783285 0.02 0.814864 4483.2 8252.7 0.392703 194 38 1 2.48207e-314 0 0 0 
1.64877 57.1979 3.26988 0.02 0.843285 4431.31 7882.25 0.379468 195 38 1 2.48207e-314 0 0 0 
1.67187 57.1102 6.63239 0.02 0.873738 4378.05 7516.09 0.366243 196 39 1 2.48207e-314 0 0 0 
1.69445 57.086 7.86517 0.02 0.907182 4324.44 7150.36 0.352741 197 39 1 2.48207e-314 0 0 0 
1.71583 57.1061 9.11521 0.02 0.942631 4272.27 6798.43 0.339475 198 40 1 2.48207e-314 0 0 0 
1.73441 57.1265 10.8374 0.02 0.976837 4224.93 6487.67 0.327588 199 40 1 2.48207e-314 0 0 0 
1.76699 56.9916 14.9232 0.02 1.04631 4128.76 5919 0.305836 200 40 1 2.48206e-314 0 0 0 
1.78366 57.0052 14.8582 0.02 1.08741 4080.09 5628.15 0.294277 201 40 1 2.48206e-314 0 0 0 
1.80097 57.0337 13.8437 0.02 1.13472 4028.05 5324.72 0.282009 202 40 1 2.48206e-314 0 0 0 
1.81797 57.0443 13.2697 0.02 1.18654 3974.2 5024.06 0.269691 203 40 1 2.48206e-314 0 0 0 
1.83419 57.0233 13.7759 0.02 1.24177 3919.93 4735.06 0.257697 204 39 1 2.48206e-314 0 0 0 
1.85047 56.9884 14.1212 0.02 1.30392 3864.68 4445.79 0.245413 205 39 1 2.48206e-314 0 0 0 
1.86918 57.0441 10.3248 0.02 1.38481 3809.76 4126.63 0.231078 206 39 1 2.48206e-314 0 0 0 
1.88524 57.1197 9.9195 0.02 1.46285 3764.61 3860.19 0.218751 207 39 1 2.48206e-314 0 0 0 
1.89906 57.1567 9.00126 0.02 1.53781 3724.55 3632.95 0.208089 208 38 1 2.48206e-314 0 0 0 
1.91226 57.2067 7.30105 0.02 1.61754 3688.44 3420.39 0.197832 209 38 1 2.48206e-314 0 0 0 
1.92424 57.2422 5.49504 0.02 1.69782 3656.34 3230.29 0.188476 210 37 1 2.48206e-314 0 0 0 
1.93538 57.2469 4.09484 0.02 1.78037 3626.09 3055.04 0.179738 211 37 1 2.48206e-314 0 0 0 
1.94721 57.2979 -0.214521 0.02 1.87748 3600.26 2876.38 0.170441 212 37 1 2.48206e-314 0 0 0 
1.95886 57.3831 -2.83583 0.02 1.98271 3580.33 2708.65 0.161396 213 36 1 2.48206e-314 0 0 0 
1.96971 57.4609 -4.56533 0.02 2.08983 3565.09 2558.87 0.153123 214 36 1 2.48206e-314 0 0 0 
