# Time [s]: 0.0393972
# Columns: pos [m], vel [m/s], acc [m/s^2], mass [kg], dens [kg/m^3], pres [Pa], ene [J/kg], sml [m], id, neighbor, alpha, gradh, ...additional?
# Additional arrays: grad_velocity_0(vector) grad_pressure(vector) grad_density(vector) 
-3.89773 9.05837 148.551 0.02 0.708325 6721.85 14234.8 0.45177 0 35 1 2.48207e-314 0 0 0 
-3.88836 8.20413 212.118 0.02 0.70701 6671.04 14153.6 0.45261 1 36 1 2.48207e-314 0 0 0 
-3.87566 7.40862 219.558 0.02 0.70561 6600.99 14032.7 0.453509 2 35 1 2.48207e-314 0 0 0 
-3.85939 6.82049 196.619 0.02 0.704373 6514.11 13872.4 0.454305 3 36 1 2.48207e-314 0 0 0 
-3.83968 6.52282 147.248 0.02 0.703617 6416.81 13679.9 0.454793 4 35 1 2.48207e-314 0 0 0 
-3.81634 6.62274 101.048 0.02 0.703662 6316.37 13464.9 0.454764 5 35 1 2.48207e-314 0 0 0 
-3.78861 7.32103 92.737 0.02 0.704813 6219.6 13236.9 0.454021 6 34 1 2.48207e-314 0 0 0 
-3.75437 9.10888 189.322 0.02 0.707127 6131.07 13005.8 0.452536 7 33 1 2.48207e-314 0 0 0 
-3.71475 11.6497 346.015 0.02 0.709418 6055.11 12803.2 0.451074 8 33 1 2.48207e-314 0 0 0 
-3.6812 13.3033 434.586 0.02 0.710564 6002.02 12670.5 0.450347 9 33 1 2.48207e-314 0 0 0 
-3.65388 13.8269 422.407 0.02 0.711461 5964.66 12575.7 0.449779 10 32 1 2.48207e-314 0 0 0 
-3.62828 14.0907 385.649 0.02 0.712701 5936.58 12494.7 0.448996 11 32 1 2.48207e-314 0 0 0 
-3.60255 14.4405 365.37 0.02 0.714303 5914.65 12420.7 0.447989 12 32 1 2.48207e-314 0 0 0 
-3.57617 14.939 361.319 0.02 0.716126 5897.06 12352.2 0.446849 13 31 1 2.48207e-314 0 0 0 
-3.54924 15.5426 368.372 0.02 0.717977 5882.44 12289.8 0.445697 14 31 1 2.48207e-314 0 0 0 
-3.52225 16.1933 392.225 0.02 0.719695 5869.92 12234.3 0.444633 15 32 1 2.48207e-314 0 0 0 
-3.49513 16.9202 430.009 0.02 0.721202 5858.6 12185.2 0.443704 16 32 1 2.48207e-314 0 0 0 
-3.46723 17.677 457.768 0.02 0.722462 5847.95 12141.9 0.44293 17 33 1 2.48207e-314 0 0 0 
-3.43854 18.5248 479.626 0.02 0.723364 5837.71 12105.5 0.442377 18 32 1 2.48207e-314 0 0 0 
-3.40992 19.3434 501.209 0.02 0.723838 5827.87 12077.2 0.442088 19 31 1 2.48207e-314 0 0 0 
-3.38174 20.0603 509.851 0.02 0.723994 5818.78 12055.7 0.441993 20 31 1 2.48207e-314 0 0 0 
-3.35402 20.6921 511.627 0.02 0.723958 5810.59 12039.3 0.442014 21 31 1 2.48207e-314 0 0 0 
-3.32666 21.2647 511.05 0.02 0.723821 5803.23 12026.4 0.442098 22 31 1 2.48207e-314 0 0 0 
-3.29957 21.8017 511.576 0.02 0.723638 5796.49 12015.4 0.44221 23 31 1 2.48207e-314 0 0 0 
-3.27256 22.3301 514.747 0.02 0.723429 5790.02 12005.5 0.442338 24 32 1 2.48207e-314 0 0 0 
-3.2453 22.9007 521.758 0.02 0.723169 5783.22 11995.7 0.442497 25 32 1 2.48207e-314 0 0 0 
-3.21773 23.5228 533.635 0.02 0.722813 5775.69 11986 0.442715 26 32 1 2.48207e-314 0 0 0 
-3.18993 24.1747 548.243 0.02 0.72232 5767.22 11976.6 0.443017 27 32 1 2.48207e-314 0 0 0 
-3.16203 24.8285 561.931 0.02 0.721681 5757.85 11967.7 0.443409 28 32 1 2.48207e-314 0 0 0 
-3.13413 25.4645 572.447 0.02 0.720915 5747.77 11959.4 0.44388 29 32 1 2.48207e-314 0 0 0 
-3.10628 26.0758 579.542 0.02 0.720057 5737.18 11951.6 0.44441 30 32 1 2.48207e-314 0 0 0 
-3.07847 26.665 584.206 0.02 0.719137 5726.24 11944.1 0.444978 31 32 1 2.48207e-314 0 0 0 
-3.05069 27.2391 587.888 0.02 0.71818 5715.01 11936.6 0.445571 32 32 1 2.48207e-314 0 0 0 
-3.0229 27.8057 592.083 0.02 0.7172 5703.51 11928.8 0.44618 33 32 1 2.48207e-314 0 0 0 
-2.99509 28.3713 597.459 0.02 0.716201 5691.71 11920.7 0.446802 34 32 1 2.48207e-314 0 0 0 
-2.96721 28.9401 604.195 0.02 0.715182 5679.53 11912.2 0.447438 35 32 1 2.48207e-314 0 0 0 
-2.93927 29.5126 611.934 0.02 0.714139 5666.93 11903.1 0.448092 36 32 1 2.48207e-314 0 0 0 
-2.91125 30.087 620.067 0.02 0.713067 5653.92 11893.6 0.448766 37 32 1 2.48207e-314 0 0 0 
-2.88317 30.6604 628.046 0.02 0.711965 5640.5 11883.8 0.44946 38 32 1 2.48207e-314 0 0 0 
-2.85503 31.2303 635.525 0.02 0.710834 5626.72 11873.6 0.450175 39 32 1 2.48207e-314 0 0 0 
-2.82684 31.7943 642.323 0.02 0.709678 5612.63 11863.1 0.450909 40 32 1 2.48207e-314 0 0 0 
-2.79862 32.3506 648.382 0.02 0.708501 5598.29 11852.5 0.451658 41 32 1 2.48207e-314 0 0 0 
-2.77037 32.8989 653.865 0.02 0.707309 5583.74 11841.6 0.452419 42 32 1 2.48207e-314 0 0 0 
-2.74208 33.4406 659.073 0.02 0.706105 5569.01 11830.5 0.45319 43 32 1 2.48207e-314 0 0 0 
-2.71375 33.9769 664.277 0.02 0.704892 5554.12 11819.2 0.45397 44 32 1 2.48207e-314 0 0 0 
-2.68537 34.5093 669.623 0.02 0.703669 5539.06 11807.6 0.454759 45 32 1 2.48207e-314 0 0 0 
-2.65694 35.0381 675.114 0.02 0.702437 5523.83 11795.8 0.455557 46 32 1 2.48207e-314 0 0 0 
-2.62845 35.5633 680.642 0.02 0.701194 5508.43 11783.8 0.456364 47 32 1 2.48207e-314 0 0 0 
-2.5999 36.0842 686.043 0.02 0.699939 5492.87 11771.5 0.457183 48 32 1 2.48207e-314 0 0 0 
-2.5713 36.6002 691.159 0.02 0.698671 5477.16 11759.2 0.458012 49 32 1 2.48207e-314 0 0 0 
-2.54265 37.1106 695.882 0.02 0.697392 5461.3 11746.6 0.458853 50 32 1 2.48207e-314 0 0 0 
-2.51394 37.6148 700.172 0.02 0.696102 5445.33 11734 0.459703 51 32 1 2.48207e-314 0 0 0 
-2.48518 38.1126 704.051 0.02 0.694802 5429.26 11721.2 0.460563 52 32 1 2.48207e-314 0 0 0 
-2.45637 38.6042 707.565 0.02 0.693493 5413.09 11708.4 0.461432 53 32 1 2.48207e-314 0 0 0 
-2.42751 39.0894 710.767 0.02 0.692177 5396.84 11695.4 0.46231 54 32 1 2.48207e-314 0 0 0 
-2.39859 39.5686 713.688 0.02 0.690853 5380.52 11682.4 0.463195 55 32 1 2.48207e-314 0 0 0 
-2.36962 40.0417 716.336 0.02 0.689523 5364.13 11669.3 0.464089 56 32 1 2.48207e-314 0 0 0 
-2.34059 40.5088 718.7 0.02 0.688186 5347.68 11656.1 0.464991 57 32 1 2.48207e-314 0 0 0 
-2.3115 40.9697 720.749 0.02 0.686843 5331.17 11642.8 0.4659 58 32 1 2.48207e-314 0 0 0 
-2.28235 41.4243 722.446 0.02 0.685494 5314.62 11629.5 0.466816 59 32 1 2.48207e-314 0 0 0 
-2.25315 41.8724 723.758 0.02 0.684141 5298.03 11616.2 0.46774 60 32 1 2.48207e-314 0 0 0 
-2.22389 42.3139 724.661 0.02 0.682782 5281.41 11602.8 0.468671 61 32 1 2.48207e-314 0 0 0 
-2.19457 42.7486 725.141 0.02 0.68142 5264.77 11589.3 0.469607 62 32 1 2.48207e-314 0 0 0 
-2.16519 43.1765 725.197 0.02 0.680055 5248.12 11575.9 0.47055 63 32 1 2.48207e-314 0 0 0 
-2.13575 43.5975 724.832 0.02 0.678688 5231.48 11562.4 0.471498 64 32 1 2.48207e-314 0 0 0 
-2.10625 44.0116 724.053 0.02 0.67732 5214.85 11548.9 0.472451 65 32 1 2.48207e-314 0 0 0 
-2.07669 44.4187 722.863 0.02 0.675951 5198.24 11535.5 0.473407 66 32 1 2.48207e-314 0 0 0 
-2.04707 44.8188 721.266 0.02 0.674582 5181.66 11522 0.474368 67 32 1 2.48207e-314 0 0 0 
-2.01739 45.212 719.257 0.02 0.673215 5165.12 11508.5 0.475331 68 32 1 2.48207e-314 0 0 0 
-1.98765 45.5981 716.833 0.02 0.671849 5148.63 11495.1 0.476297 69 32 1 2.48207e-314 0 0 0 
-1.95785 45.9771 713.99 0.02 0.670486 5132.2 11481.7 0.477266 70 32 1 2.48207e-314 0 0 0 
-1.92798 46.3491 710.723 0.02 0.669127 5115.83 11468.4 0.478235 71 32 1 2.48207e-314 0 0 0 
-1.89806 46.7139 707.032 0.02 0.667771 5099.55 11455.1 0.479206 72 32 1 2.48207e-314 0 0 0 
-1.86808 47.0715 702.917 0.02 0.666421 5083.35 11441.8 0.480177 73 32 1 2.48207e-314 0 0 0 
-1.83803 47.422 698.384 0.02 0.665077 5067.26 11428.6 0.481147 74 32 1 2.48207e-314 0 0 0 
-1.80792 47.7653 693.437 0.02 0.66374 5051.27 11415.5 0.482117 75 32 1 2.48207e-314 0 0 0 
-1.77775 48.1014 688.085 0.02 0.66241 5035.39 11402.5 0.483084 76 32 1 2.48207e-314 0 0 0 
-1.74753 48.4304 682.335 0.02 0.661089 5019.65 11389.6 0.48405 77 32 1 2.48207e-314 0 0 0 
-1.71724 48.7523 676.195 0.02 0.659777 5004.04 11376.7 0.485013 78 32 1 2.48207e-314 0 0 0 
-1.68689 49.0671 669.675 0.02 0.658474 4988.57 11364 0.485972 79 32 1 2.48207e-314 0 0 0 
-1.65648 49.3748 662.783 0.02 0.657183 4973.25 11351.4 0.486927 80 32 1 2.48207e-314 0 0 0 
-1.62601 49.6754 655.528 0.02 0.655903 4958.1 11338.9 0.487877 81 32 1 2.48207e-314 0 0 0 
-1.59548 49.9691 647.922 0.02 0.654635 4943.11 11326.5 0.488822 82 32 1 2.48207e-314 0 0 0 
-1.56489 50.2558 639.976 0.02 0.65338 4928.3 11314.2 0.489761 83 32 1 2.48207e-314 0 0 0 
-1.53424 50.5356 631.7 0.02 0.652139 4913.68 11302.1 0.490693 84 32 1 2.48207e-314 0 0 0 
-1.50354 50.8085 623.109 0.02 0.650911 4899.24 11290.2 0.491618 85 32 1 2.48207e-314 0 0 0 
-1.47277 51.0746 614.215 0.02 0.649699 4885.01 11278.4 0.492536 86 32 1 2.48207e-314 0 0 0 
-1.44195 51.334 605.033 0.02 0.648502 4870.98 11266.7 0.493445 87 32 1 2.48207e-314 0 0 0 
-1.41107 51.5867 595.577 0.02 0.647321 4857.16 11255.3 0.494345 88 32 1 2.48207e-314 0 0 0 
-1.38014 51.8328 585.862 0.02 0.646156 4843.55 11244 0.495236 89 32 1 2.48207e-314 0 0 0 
-1.34915 52.0725 575.902 0.02 0.645009 4830.17 11232.9 0.496117 90 32 1 2.48207e-314 0 0 0 
-1.31811 52.3056 565.711 0.02 0.643879 4817.02 11221.9 0.496988 91 32 1 2.48207e-314 0 0 0 
-1.28701 52.5324 555.306 0.02 0.642767 4804.1 11211.2 0.497848 92 32 1 2.48207e-314 0 0 0 
-1.25585 52.7529 544.7 0.02 0.641673 4791.41 11200.7 0.498696 93 32 1 2.48207e-314 0 0 0 
-1.22465 52.9673 533.908 0.02 0.640599 4778.97 11190.3 0.499533 94 32 1 2.48207e-314 0 0 0 
-1.19339 53.1755 522.947 0.02 0.639543 4766.77 11180.2 0.500357 95 32 1 2.48207e-314 0 0 0 
-1.16208 53.3777 511.831 0.02 0.638507 4754.82 11170.2 0.501169 96 32 1 2.48207e-314 0 0 0 
-1.13072 53.574 500.575 0.02 0.63749 4743.13 11160.5 0.501968 97 32 1 2.48207e-314 0 0 0 
-1.09931 53.7645 489.196 0.02 0.636494 4731.68 11151 0.502754 98 32 1 2.48207e-314 0 0 0 
-1.06785 53.9492 477.706 0.02 0.635518 4720.49 11141.8 0.503527 99 32 1 2.48207e-314 0 0 0 
-1.03635 54.1283 466.122 0.02 0.634562 4709.56 11132.7 0.504285 100 32 1 2.48207e-314 0 0 0 
-1.0048 54.3018 454.455 0.02 0.633627 4698.89 11123.9 0.505029 101 32 1 2.48207e-314 0 0 0 
-0.973197 54.4699 442.721 0.02 0.632713 4688.49 11115.3 0.505759 102 32 1 2.48207e-314 0 0 0 
-0.941552 54.6325 430.933 0.02 0.63182 4678.34 11106.9 0.506474 103 32 1 2.48207e-314 0 0 0 
-0.909864 54.79 419.103 0.02 0.630948 4668.46 11098.7 0.507174 104 32 1 2.48207e-314 0 0 0 
-0.878132 54.9422 407.246 0.02 0.630097 4658.84 11090.8 0.507858 105 32 1 2.48207e-314 0 0 0 
-0.846357 55.0894 395.375 0.02 0.629267 4649.49 11083.2 0.508528 106 32 1 2.48207e-314 0 0 0 
-0.814542 55.2316 383.505 0.02 0.628459 4640.4 11075.7 0.509182 107 32 1 2.48207e-314 0 0 0 
-0.782686 55.3689 371.65 0.02 0.627673 4631.57 11068.5 0.50982 108 32 1 2.48207e-314 0 0 0 
-0.75079 55.5014 359.823 0.02 0.626908 4623.01 11061.5 0.510442 109 32 1 2.48207e-314 0 0 0 
-0.718856 55.6292 348.04 0.02 0.626164 4614.71 11054.8 0.511048 110 32 1 2.48207e-314 0 0 0 
-0.686885 55.7523 336.312 0.02 0.625442 4606.68 11048.3 0.511639 111 32 1 2.48207e-314 0 0 0 
-0.654878 55.8709 324.651 0.02 0.624741 4598.9 11042 0.512213 112 32 1 2.48207e-314 0 0 0 
-0.622835 55.985 313.07 0.02 0.624061 4591.37 11035.9 0.51277 113 32 1 2.48207e-314 0 0 0 
-0.590758 56.0947 301.578 0.02 0.623403 4584.11 11030.1 0.513311 114 32 1 2.48207e-314 0 0 0 
-0.558647 56.2001 290.188 0.02 0.622767 4577.09 11024.5 0.513836 115 32 1 2.48207e-314 0 0 0 
-0.526504 56.3013 278.912 0.02 0.622152 4570.33 11019.1 0.514344 116 32 1 2.48207e-314 0 0 0 
-0.49433 56.3984 267.762 0.02 0.621558 4563.81 11013.9 0.514836 117 32 1 2.48207e-314 0 0 0 
-0.462126 56.4915 256.752 0.02 0.620985 4557.53 11008.9 0.515311 118 32 1 2.48207e-314 0 0 0 
-0.429892 56.5807 245.897 0.02 0.620433 4551.49 11004.1 0.515769 119 32 1 2.48207e-314 0 0 0 
-0.397631 56.666 235.21 0.02 0.619902 4545.69 10999.4 0.516211 120 32 1 2.48207e-314 0 0 0 
-0.365342 56.7475 224.704 0.02 0.619391 4540.11 10995 0.516636 121 32 1 2.48207e-314 0 0 0 
-0.333028 56.8253 214.392 0.02 0.618901 4534.75 10990.7 0.517046 122 32 1 2.48207e-314 0 0 0 
-0.30069 56.8994 204.283 0.02 0.618431 4529.61 10986.6 0.517438 123 32 1 2.48207e-314 0 0 0 
-0.268328 56.97 194.384 0.02 0.617981 4524.67 10982.6 0.517815 124 32 1 2.48207e-314 0 0 0 
-0.235942 57.037 184.703 0.02 0.61755 4519.94 10978.8 0.518176 125 32 1 2.48207e-314 0 0 0 
-0.203534 57.1007 175.247 0.02 0.617139 4515.4 10975 0.518522 126 32 1 2.48207e-314 0 0 0 
-0.171105 57.1611 166.023 0.02 0.616746 4511.04 10971.4 0.518852 127 32 1 2.48207e-314 0 0 0 
-0.138655 57.2184 157.038 0.02 0.616371 4506.86 10967.9 0.519168 128 32 1 2.48207e-314 0 0 0 
-0.106187 57.2727 148.304 0.02 0.616014 4502.84 10964.5 0.519469 129 32 1 2.48207e-314 0 0 0 
-0.0737003 57.324 139.83 0.02 0.615672 4498.98 10961.2 0.519757 130 32 1 2.48207e-314 0 0 0 
-0.0411975 57.3724 131.626 0.02 0.615346 4495.26 10957.9 0.520033 131 32 1 2.48207e-314 0 0 0 
-0.00867954 57.418 123.702 0.02 0.615034 4491.68 10954.7 0.520296 132 32 1 2.48207e-314 0 0 0 
0.0238529 57.4609 116.063 0.02 0.614735 4488.22 10951.6 0.52055 133 32 1 2.48207e-314 0 0 0 
0.0563995 57.5011 108.715 0.02 0.614447 4484.88 10948.6 0.520794 134 32 1 2.48207e-314 0 0 0 
0.0889604 57.5387 101.658 0.02 0.614169 4481.63 10945.6 0.521029 135 32 1 2.48207e-314 0 0 0 
0.121536 57.5739 94.8896 0.02 0.613898 4478.48 10942.8 0.521259 136 32 1 2.48207e-314 0 0 0 
0.154126 57.6068 88.4059 0.02 0.613634 4475.42 10940 0.521484 137 32 1 2.48207e-314 0 0 0 
0.18673 57.6377 82.2023 0.02 0.613372 4472.43 10937.3 0.521706 138 32 1 2.48207e-314 0 0 0 
0.219348 57.6667 76.2753 0.02 0.613111 4469.51 10934.9 0.521928 139 32 1 2.48207e-314 0 0 0 
0.251977 57.6938 70.6246 0.02 0.612848 4466.66 10932.6 0.522152 140 32 1 2.48207e-314 0 0 0 
0.284617 57.7193 65.2534 0.02 0.612579 4463.86 10930.5 0.522382 141 32 1 2.48207e-314 0 0 0 
0.317267 57.7432 60.168 0.02 0.612301 4461.13 10928.8 0.522619 142 32 1 2.48207e-314 0 0 0 
0.349927 57.7656 55.3736 0.02 0.612011 4458.47 10927.5 0.522866 143 32 1 2.48207e-314 0 0 0 
0.382599 57.7866 50.8711 0.02 0.611704 4455.88 10926.6 0.523128 144 32 1 2.48207e-314 0 0 0 
0.415286 57.8065 46.6555 0.02 0.611378 4453.36 10926.2 0.523408 145 32 1 2.48207e-314 0 0 0 
0.447991 57.8253 42.716 0.02 0.611028 4450.93 10926.5 0.523708 146 32 1 2.48207e-314 0 0 0 
0.480718 57.8432 39.0373 0.02 0.610649 4448.62 10927.6 0.524033 147 32 1 2.48207e-314 0 0 0 
0.513468 57.8605 35.6027 0.02 0.610239 4446.44 10929.6 0.524385 148 32 1 2.48207e-314 0 0 0 
0.54624 57.8774 32.3937 0.02 0.609793 4444.42 10932.6 0.524769 149 32 1 2.48207e-314 0 0 0 
0.579034 57.8939 29.3885 0.02 0.609307 4442.59 10936.8 0.525187 150 32 1 2.48207e-314 0 0 0 
0.611849 57.9102 26.5654 0.02 0.60878 4441 10942.4 0.525642 151 32 1 2.48207e-314 0 0 0 
0.644684 57.9262 23.9124 0.02 0.608208 4439.7 10949.5 0.526136 152 32 1 2.48207e-314 0 0 0 
0.677542 57.942 21.4327 0.02 0.60759 4438.72 10958.2 0.526671 153 32 1 2.48207e-314 0 0 0 
0.71043 57.9579 19.1406 0.02 0.606926 4438.12 10968.7 0.527247 154 32 1 2.48207e-314 0 0 0 
0.743358 57.9742 17.0552 0.02 0.606214 4437.96 10981.2 0.527866 155 32 1 2.48207e-314 0 0 0 
0.776337 57.9913 15.1801 0.02 0.605456 4438.31 10995.8 0.528527 156 32 1 2.48207e-314 0 0 0 
0.809377 58.0093 13.4798 0.02 0.604654 4439.21 11012.6 0.529228 157 32 1 2.48207e-314 0 0 0 
0.842477 58.0277 11.8847 0.02 0.603812 4440.75 11031.8 0.529966 158 32 1 2.48207e-314 0 0 0 
0.875628 58.0457 10.3523 0.02 0.602936 4442.98 11053.4 0.530736 159 32 1 2.48207e-314 0 0 0 
0.908817 58.0628 8.8342 0.02 0.602036 4445.99 11077.4 0.53153 160 32 1 2.48207e-314 0 0 0 
0.942037 58.079 7.32952 0.02 0.601124 4449.83 11103.8 0.532336 161 32 1 2.48207e-314 0 0 0 
0.975292 58.0948 5.86824 0.02 0.600214 4454.56 11132.4 0.533143 162 32 1 2.48207e-314 0 0 0 
1.0086 58.1115 4.46125 0.02 0.599322 4460.23 11163.2 0.533937 163 32 1 2.48207e-314 0 0 0 
1.04198 58.1294 3.06646 0.02 0.598462 4466.89 11195.9 0.534704 164 32 1 2.48207e-314 0 0 0 
1.07545 58.148 1.67005 0.02 0.597657 4474.56 11230.2 0.535424 165 32 1 2.48207e-314 0 0 0 
1.10902 58.1662 0.260219 0.02 0.59693 4483.27 11265.8 0.536076 166 33 1 2.48207e-314 0 0 0 
1.14266 58.1826 -1.06273 0.02 0.596311 4493.04 11302.1 0.536633 167 33 1 2.48207e-314 0 0 0 
1.17636 58.1966 -2.24589 0.02 0.595833 4503.83 11338.3 0.537063 168 33 1 2.48207e-314 0 0 0 
1.21007 58.2075 -3.29124 0.02 0.595529 4515.57 11373.7 0.537338 169 33 1 2.48207e-314 0 0 0 
1.24378 58.2162 -4.16738 0.02 0.595434 4528.19 11407.3 0.537423 170 33 1 2.48207e-314 0 0 0 
1.27748 58.2214 -5.35914 0.02 0.595587 4541.56 11438 0.537285 171 33 1 2.48207e-314 0 0 0 
1.31115 58.219 -6.96408 0.02 0.596033 4555.57 11464.7 0.536883 172 33 1 2.48207e-314 0 0 0 
1.34475 58.2082 -8.59158 0.02 0.596826 4570.05 11485.9 0.53617 173 33 1 2.48207e-314 0 0 0 
1.37831 58.1964 -9.67719 0.02 0.598024 4584.8 11499.9 0.535096 174 32 1 2.48207e-314 0 0 0 
1.41197 58.1916 -10.2976 0.02 0.59969 4599.65 11505.1 0.533609 175 33 1 2.48207e-314 0 0 0 
1.44578 58.1907 -10.7642 0.02 0.601886 4614.35 11499.7 0.531662 176 33 1 2.48207e-314 0 0 0 
1.47962 58.1892 -11.213 0.02 0.604673 4628.58 11482 0.529211 177 33 1 2.48207e-314 0 0 0 
1.51337 58.1786 -12.0265 0.02 0.608112 4642 11450.2 0.526219 178 33 1 2.48207e-314 0 0 0 
1.54674 58.1432 -13.101 0.02 0.612249 4654.12 11402.5 0.522663 179 34 1 2.48207e-314 0 0 0 
1.57943 58.0798 -13.8178 0.02 0.617122 4664.43 11337.5 0.518536 180 34 1 2.48207e-314 0 0 0 
1.61138 58.0033 -13.2128 0.02 0.622769 4672.54 11254.3 0.513834 181 34 1 2.48207e-314 0 0 0 
1.64308 57.9511 -11.7668 0.02 0.629333 4678.44 11150.9 0.508475 182 34 1 2.48207e-314 0 0 0 
1.67527 57.9275 -10.61 0.02 0.637075 4682.04 11023.9 0.502296 183 35 1 2.48207e-314 0 0 0 
1.70785 57.9109 -9.75157 0.02 0.646144 4682.68 10870.7 0.495246 184 34 1 2.48207e-314 0 0 0 
1.74034 57.8838 -9.49248 0.02 0.656605 4679.69 10690.7 0.487355 185 35 1 2.48207e-314 0 0 0 
1.77227 57.8339 -9.50227 0.02 0.668475 4672.5 10484.7 0.478701 186 35 1 2.48207e-314 0 0 0 
1.80292 57.7399 -9.50734 0.02 0.681584 4660.54 10256.7 0.469494 187 35 1 2.48207e-314 0 0 0 
1.83119 57.623 -6.40563 0.02 0.695341 4644.29 10018.8 0.460206 188 36 1 2.48207e-314 0 0 0 
1.85907 57.548 -3.85731 0.02 0.710648 4624.81 9761.84 0.450293 189 36 1 2.48207e-314 0 0 0 
1.88703 57.4905 -1.41058 0.02 0.727947 4601.33 9481.48 0.439592 190 36 1 2.48207e-314 0 0 0 
1.91573 57.4696 0.383792 0.02 0.747961 4573.74 9172.45 0.42783 191 36 1 2.48207e-314 0 0 0 
1.94358 57.4354 2.54653 0.02 0.769879 4541.78 8849.04 0.41565 192 37 1 2.48207e-314 0 0 0 
1.9723 57.4405 3.84011 0.02 0.795548 4505.18 8494.5 0.402239 193 38 1 2.48207e-314 0 0 0 
1.99958 57.3442 3.82167 0.02 0.823374 4461.67 8128.17 0.388645 194 38 1 2.48207e-314 0 0 0 
2.02306 57.2321 6.75845 0.02 0.850429 4417.45 7791.58 0.376281 195 38 1 2.48207e-314 0 0 0 
2.04564 57.1617 8.85423 0.02 0.879518 4372.27 7456.83 0.363836 196 38 1 2.48207e-314 0 0 0 
2.06809 57.1426 9.19216 0.02 0.911785 4326.27 7117.25 0.35096 197 38 1 2.48207e-314 0 0 0 
2.08962 57.1684 9.71583 0.02 0.946277 4281.29 6786.54 0.338168 198 39 1 2.48207e-314 0 0 0 
2.10837 57.201 11.4914 0.02 0.979504 4240.77 6494.26 0.326696 199 39 1 2.48207e-314 0 0 0 
2.14015 57.088 14.4826 0.02 1.04416 4161.15 5977.73 0.306466 200 39 1 2.48206e-314 0 0 0 
2.1569 57.1006 14.2428 0.02 1.08326 4119.26 5703.97 0.295405 201 39 1 2.48206e-314 0 0 0 
2.17437 57.1221 13.1072 0.02 1.1283 4074.02 5416.12 0.283612 202 39 1 2.48206e-314 0 0 0 
2.19143 57.1283 12.281 0.02 1.17717 4027.51 5132 0.271838 203 39 1 2.48206e-314 0 0 0 
2.20752 57.1106 12.6561 0.02 1.2284 3981.22 4861.46 0.260502 204 39 1 2.48206e-314 0 0 0 
2.22359 57.0791 13.2669 0.02 1.28533 3933.98 4591.02 0.248964 205 38 1 2.48206e-314 0 0 0 
2.24259 57.1157 11.0972 0.02 1.36121 3884.04 4280.03 0.235084 206 38 1 2.48206e-314 0 0 0 
2.25914 57.1899 11.0262 0.02 1.43531 3843.11 4016.3 0.222948 207 38 1 2.48206e-314 0 0 0 
2.27319 57.2227 10.5784 0.02 1.50532 3806.63 3793.14 0.212579 208 38 1 2.48206e-314 0 0 0 
2.28669 57.2635 9.36238 0.02 1.58004 3772.78 3581.64 0.202526 209 38 1 2.48206e-314 0 0 0 
2.29886 57.2869 7.65361 0.02 1.65465 3742.23 3392.44 0.193394 210 37 1 2.48206e-314 0 0 0 
2.31001 57.2868 7.21535 0.02 1.72995 3713.54 3219.9 0.184976 211 37 1 2.48206e-314 0 0 0 
2.32209 57.3142 4.1944 0.02 1.82016 3686.64 3038.16 0.175809 212 37 1 2.48206e-314 0 0 0 
2.33424 57.3846 2.30019 0.02 1.92015 3664.85 2862.92 0.166654 213 36 1 2.48206e-314 0 0 0 
2.34558 57.4537 1.26703 0.02 2.02223 3647.33 2705.41 0.158241 214 36 1 2.48206e-314 0 0 0 
