# Time [s]: 0.0432316
# Columns: pos [m], vel [m/s], acc [m/s^2], mass [kg], dens [kg/m^3], pres [Pa], ene [J/kg], sml [m], id, neighbor, alpha, gradh, ...additional?
# Additional arrays: grad_velocity_0(vector) grad_pressure(vector) grad_density(vector) 
-3.86206 9.50996 88.0939 0.02 0.634349 6038.61 14279.2 0.504454 0 37 1 2.48207e-314 0 0 0 
-3.85552 8.87261 141.87 0.02 0.633466 5995.47 14197 0.505157 1 37 1 2.48207e-314 0 0 0 
-3.84576 8.16025 175.747 0.02 0.632336 5930.08 14067.3 0.50606 2 37 1 2.48207e-314 0 0 0 
-3.83187 7.51402 167.559 0.02 0.63108 5840.25 13881.8 0.507068 3 37 1 2.48207e-314 0 0 0 
-3.81362 7.06066 133.503 0.02 0.630011 5730.94 13645.1 0.507927 4 36 1 2.48207e-314 0 0 0 
-3.79025 6.97679 85.853 0.02 0.629553 5609.46 13365.6 0.508297 5 36 1 2.48207e-314 0 0 0 
-3.75996 7.60618 61.7958 0.02 0.630338 5485.06 13052.9 0.507664 6 35 1 2.48207e-314 0 0 0 
-3.71823 9.70544 126.755 0.02 0.633128 5367.93 12717.9 0.505427 7 34 1 2.48207e-314 0 0 0 
-3.66776 12.8089 265.116 0.02 0.636808 5274.83 12425 0.502507 8 34 1 2.48207e-314 0 0 0 
-3.62728 14.7525 329.562 0.02 0.639141 5217.7 12245.6 0.500672 9 32 1 2.48207e-314 0 0 0 
-3.59804 15.2286 314.345 0.02 0.640878 5180.9 12126.3 0.499315 10 32 1 2.48207e-314 0 0 0 
-3.57172 15.3457 276.046 0.02 0.642918 5153.15 12023.1 0.497731 11 31 1 2.48207e-314 0 0 0 
-3.54482 15.5989 247.033 0.02 0.645416 5130.86 11924.7 0.495804 12 31 1 2.48207e-314 0 0 0 
-3.51659 16.053 230.576 0.02 0.648261 5112.62 11830.2 0.493628 13 31 1 2.48207e-314 0 0 0 
-3.48731 16.6782 235.67 0.02 0.651219 5097.53 11741.7 0.491386 14 31 1 2.48207e-314 0 0 0 
-3.45765 17.4146 256.357 0.02 0.654049 5084.97 11662.1 0.48926 15 32 1 2.48207e-314 0 0 0 
-3.42748 18.2771 289.069 0.02 0.6566 5074.09 11591.9 0.487359 16 33 1 2.48207e-314 0 0 0 
-3.39648 19.132 312.467 0.02 0.658797 5064.61 11531.7 0.485734 17 34 1 2.48207e-314 0 0 0 
-3.36441 20.0409 324.592 0.02 0.660541 5056.49 11482.8 0.484451 18 33 1 2.48207e-314 0 0 0 
-3.33254 20.9122 330.305 0.02 0.661739 5049.77 11446.8 0.483575 19 32 1 2.48207e-314 0 0 0 
-3.30158 21.6352 325.063 0.02 0.662561 5044.69 11421.1 0.482975 20 31 1 2.48207e-314 0 0 0 
-3.27145 22.2503 315.193 0.02 0.663189 5041.24 11402.4 0.482517 21 31 1 2.48207e-314 0 0 0 
-3.24193 22.8012 305.691 0.02 0.663728 5039.15 11388.4 0.482125 22 32 1 2.48207e-314 0 0 0 
-3.21279 23.3267 299.812 0.02 0.664223 5037.96 11377.3 0.481766 23 32 1 2.48207e-314 0 0 0 
-3.18374 23.8584 298.84 0.02 0.664685 5037.22 11367.7 0.481431 24 31 1 2.48207e-314 0 0 0 
-3.15426 24.4421 299.085 0.02 0.665079 5036.28 11358.8 0.481146 25 32 1 2.48207e-314 0 0 0 
-3.12424 25.0914 301.675 0.02 0.665345 5034.71 11350.8 0.480953 26 32 1 2.48207e-314 0 0 0 
-3.09386 25.7809 306.943 0.02 0.665426 5032.25 11343.8 0.480895 27 32 1 2.48207e-314 0 0 0 
-3.06338 26.4683 311.123 0.02 0.665311 5028.98 11338.4 0.480978 28 31 1 2.48207e-314 0 0 0 
-3.03299 27.1249 311.649 0.02 0.665035 5025.15 11334.5 0.481178 29 31 1 2.48207e-314 0 0 0 
-3.00276 27.7434 308.719 0.02 0.664651 5021.01 11331.7 0.481455 30 31 1 2.48207e-314 0 0 0 
-2.97269 28.331 303.684 0.02 0.664207 5016.72 11329.6 0.481778 31 31 1 2.48207e-314 0 0 0 
-2.9427 28.9005 298.158 0.02 0.663733 5012.31 11327.7 0.482121 32 31 1 2.48207e-314 0 0 0 
-2.91273 29.4661 293.881 0.02 0.663247 5007.76 11325.7 0.482475 33 31 1 2.48207e-314 0 0 0 
-2.88273 30.0363 291.298 0.02 0.662749 5002.98 11323.4 0.482837 34 32 1 2.48207e-314 0 0 0 
-2.85265 30.6155 290.261 0.02 0.662234 4997.89 11320.7 0.483213 35 32 1 2.48207e-314 0 0 0 
-2.82247 31.2023 290.15 0.02 0.661696 4992.43 11317.5 0.483606 36 32 1 2.48207e-314 0 0 0 
-2.79221 31.7919 290.164 0.02 0.66113 4986.6 11313.9 0.48402 37 32 1 2.48207e-314 0 0 0 
-2.76189 32.3795 289.745 0.02 0.660535 4980.44 11310.1 0.484456 38 32 1 2.48207e-314 0 0 0 
-2.73153 32.9614 288.675 0.02 0.659917 4974.01 11306.1 0.48491 39 32 1 2.48207e-314 0 0 0 
-2.70116 33.5348 287.003 0.02 0.659281 4967.4 11302 0.485377 40 32 1 2.48207e-314 0 0 0 
-2.67078 34.098 284.803 0.02 0.658636 4960.66 11297.7 0.485852 41 32 1 2.48207e-314 0 0 0 
-2.64041 34.6519 282.361 0.02 0.657989 4953.85 11293.3 0.48633 42 32 1 2.48207e-314 0 0 0 
-2.61002 35.1987 280.032 0.02 0.657345 4946.99 11288.7 0.486807 43 32 1 2.48207e-314 0 0 0 
-2.57961 35.741 278.079 0.02 0.656704 4940.07 11283.9 0.487282 44 32 1 2.48207e-314 0 0 0 
-2.54917 36.2806 276.594 0.02 0.656067 4933.09 11278.9 0.487755 45 32 1 2.48207e-314 0 0 0 
-2.51868 36.8178 275.506 0.02 0.65543 4926.03 11273.7 0.488229 46 32 1 2.48207e-314 0 0 0 
-2.48816 37.3519 274.643 0.02 0.654793 4918.9 11268.3 0.488704 47 32 1 2.48207e-314 0 0 0 
-2.45759 37.8817 273.804 0.02 0.654152 4911.7 11262.9 0.489183 48 32 1 2.48207e-314 0 0 0 
-2.42699 38.4057 272.824 0.02 0.653508 4904.45 11257.3 0.489665 49 32 1 2.48207e-314 0 0 0 
-2.39635 38.9229 271.629 0.02 0.652861 4897.16 11251.7 0.49015 50 32 1 2.48207e-314 0 0 0 
-2.3657 39.4328 270.244 0.02 0.652213 4889.86 11246.1 0.490637 51 32 1 2.48207e-314 0 0 0 
-2.33502 39.9355 268.757 0.02 0.651565 4882.55 11240.4 0.491125 52 32 1 2.48207e-314 0 0 0 
-2.30431 40.4311 267.267 0.02 0.650917 4875.24 11234.8 0.491614 53 32 1 2.48207e-314 0 0 0 
-2.27357 40.9201 265.851 0.02 0.650271 4867.93 11229.1 0.492103 54 32 1 2.48207e-314 0 0 0 
-2.2428 41.4026 264.544 0.02 0.649625 4860.63 11223.4 0.492592 55 32 1 2.48207e-314 0 0 0 
-2.212 41.8789 263.339 0.02 0.64898 4853.34 11217.7 0.493082 56 32 1 2.48207e-314 0 0 0 
-2.18117 42.3487 262.205 0.02 0.648334 4846.04 11212 0.493573 57 32 1 2.48207e-314 0 0 0 
-2.15031 42.8119 261.096 0.02 0.647688 4838.74 11206.3 0.494065 58 32 1 2.48207e-314 0 0 0 
-2.11941 43.2681 259.971 0.02 0.64704 4831.44 11200.6 0.494559 59 32 1 2.48207e-314 0 0 0 
-2.08849 43.7171 258.799 0.02 0.646392 4824.15 11194.9 0.495055 60 32 1 2.48207e-314 0 0 0 
-2.05753 44.1586 257.572 0.02 0.645743 4816.87 11189.2 0.495553 61 32 1 2.48207e-314 0 0 0 
-2.02654 44.5925 256.296 0.02 0.645094 4809.6 11183.6 0.496052 62 32 1 2.48207e-314 0 0 0 
-1.99552 45.0187 254.986 0.02 0.644445 4802.35 11177.9 0.496551 63 32 1 2.48207e-314 0 0 0 
-1.96447 45.4372 253.663 0.02 0.643796 4795.11 11172.3 0.497052 64 32 1 2.48207e-314 0 0 0 
-1.93339 45.848 252.339 0.02 0.643147 4787.89 11166.8 0.497553 65 32 1 2.48207e-314 0 0 0 
-1.90228 46.2511 251.022 0.02 0.642499 4780.7 11161.2 0.498055 66 32 1 2.48207e-314 0 0 0 
-1.87113 46.6465 249.709 0.02 0.641851 4773.52 11155.7 0.498558 67 32 1 2.48207e-314 0 0 0 
-1.83995 47.0342 248.392 0.02 0.641205 4766.37 11150.2 0.499061 68 32 1 2.48207e-314 0 0 0 
-1.80875 47.4141 247.058 0.02 0.640559 4759.24 11144.8 0.499564 69 32 1 2.48207e-314 0 0 0 
-1.77751 47.7861 245.698 0.02 0.639914 4752.14 11139.4 0.500067 70 32 1 2.48207e-314 0 0 0 
-1.74624 48.1501 244.303 0.02 0.63927 4745.06 11134 0.500571 71 32 1 2.48207e-314 0 0 0 
-1.71493 48.5061 242.869 0.02 0.638628 4738.02 11128.6 0.501074 72 32 1 2.48207e-314 0 0 0 
-1.6836 48.8541 241.395 0.02 0.637987 4731.01 11123.3 0.501577 73 32 1 2.48207e-314 0 0 0 
-1.65223 49.1941 239.88 0.02 0.637349 4724.03 11118 0.50208 74 32 1 2.48207e-314 0 0 0 
-1.62084 49.5261 238.325 0.02 0.636713 4717.1 11112.8 0.502581 75 32 1 2.48207e-314 0 0 0 
-1.58941 49.85 236.729 0.02 0.63608 4710.2 11107.6 0.503082 76 32 1 2.48207e-314 0 0 0 
-1.55795 50.166 235.09 0.02 0.635449 4703.35 11102.5 0.503581 77 32 1 2.48207e-314 0 0 0 
-1.52646 50.4741 233.404 0.02 0.634822 4696.55 11097.4 0.504079 78 32 1 2.48207e-314 0 0 0 
-1.49493 50.7742 231.665 0.02 0.634198 4689.79 11092.3 0.504575 79 32 1 2.48207e-314 0 0 0 
-1.46338 51.0664 229.867 0.02 0.633577 4683.08 11087.3 0.505069 80 32 1 2.48207e-314 0 0 0 
-1.4318 51.3508 228.005 0.02 0.632961 4676.43 11082.3 0.50556 81 32 1 2.48207e-314 0 0 0 
-1.40018 51.6273 226.072 0.02 0.632349 4669.83 11077.4 0.50605 82 32 1 2.48207e-314 0 0 0 
-1.36853 51.8961 224.064 0.02 0.631742 4663.29 11072.5 0.506536 83 32 1 2.48207e-314 0 0 0 
-1.33686 52.1571 221.974 0.02 0.631139 4656.82 11067.7 0.50702 84 32 1 2.48207e-314 0 0 0 
-1.30515 52.4105 219.8 0.02 0.630541 4650.41 11062.9 0.5075 85 32 1 2.48207e-314 0 0 0 
-1.27341 52.6564 217.537 0.02 0.629949 4644.07 11058.2 0.507977 86 32 1 2.48207e-314 0 0 0 
-1.24165 52.8947 215.181 0.02 0.629363 4637.8 11053.6 0.508451 87 32 1 2.48207e-314 0 0 0 
-1.20985 53.1256 212.729 0.02 0.628783 4631.61 11049 0.50892 88 32 1 2.48207e-314 0 0 0 
-1.17802 53.3492 210.176 0.02 0.628209 4625.49 11044.5 0.509385 89 32 1 2.48207e-314 0 0 0 
-1.14617 53.5656 207.52 0.02 0.627641 4619.45 11040.1 0.509845 90 32 1 2.48207e-314 0 0 0 
-1.11429 53.7748 204.756 0.02 0.627081 4613.5 11035.7 0.510301 91 32 1 2.48207e-314 0 0 0 
-1.08237 53.977 201.881 0.02 0.626528 4607.63 11031.4 0.510752 92 32 1 2.48207e-314 0 0 0 
-1.05043 54.1722 198.893 0.02 0.625982 4601.86 11027.2 0.511197 93 32 1 2.48207e-314 0 0 0 
-1.01846 54.3606 195.79 0.02 0.625444 4596.17 11023 0.511637 94 32 1 2.48207e-314 0 0 0 
-0.986469 54.5423 192.571 0.02 0.624914 4590.59 11018.9 0.512071 95 32 1 2.48207e-314 0 0 0 
-0.954446 54.7173 189.235 0.02 0.624392 4585.1 11015 0.512498 96 32 1 2.48207e-314 0 0 0 
-0.922397 54.886 185.785 0.02 0.623879 4579.71 11011.1 0.51292 97 32 1 2.48207e-314 0 0 0 
-0.890321 55.0482 182.221 0.02 0.623375 4574.43 11007.3 0.513335 98 32 1 2.48207e-314 0 0 0 
-0.85822 55.2042 178.546 0.02 0.622879 4569.25 11003.6 0.513743 99 32 1 2.48207e-314 0 0 0 
-0.826093 55.3541 174.762 0.02 0.622393 4564.19 10999.9 0.514144 100 32 1 2.48207e-314 0 0 0 
-0.793941 55.4981 170.874 0.02 0.621917 4559.23 10996.4 0.514538 101 32 1 2.48207e-314 0 0 0 
-0.761764 55.6361 166.884 0.02 0.62145 4554.39 10993 0.514925 102 32 1 2.48207e-314 0 0 0 
-0.729564 55.7685 162.799 0.02 0.620994 4549.67 10989.7 0.515303 103 32 1 2.48207e-314 0 0 0 
-0.69734 55.8952 158.621 0.02 0.620547 4545.07 10986.5 0.515674 104 32 1 2.48207e-314 0 0 0 
-0.665093 56.0165 154.359 0.02 0.620111 4540.59 10983.3 0.516036 105 32 1 2.48207e-314 0 0 0 
-0.632823 56.1325 150.019 0.02 0.619686 4536.23 10980.3 0.516391 106 32 1 2.48207e-314 0 0 0 
-0.600532 56.2434 145.608 0.02 0.619271 4532 10977.4 0.516736 107 32 1 2.48207e-314 0 0 0 
-0.568219 56.3492 141.137 0.02 0.618868 4527.89 10974.6 0.517073 108 32 1 2.48207e-314 0 0 0 
-0.535885 56.4501 136.615 0.02 0.618475 4523.91 10971.9 0.517402 109 32 1 2.48207e-314 0 0 0 
-0.503531 56.5462 132.051 0.02 0.618094 4520.05 10969.4 0.517721 110 32 1 2.48207e-314 0 0 0 
-0.471157 56.6378 127.456 0.02 0.617724 4516.33 10966.9 0.518031 111 32 1 2.48207e-314 0 0 0 
-0.438764 56.7248 122.841 0.02 0.617366 4512.73 10964.5 0.518331 112 32 1 2.48207e-314 0 0 0 
-0.406353 56.8074 118.213 0.02 0.617019 4509.25 10962.2 0.518622 113 32 1 2.48207e-314 0 0 0 
-0.373923 56.8858 113.582 0.02 0.616685 4505.91 10960 0.518904 114 32 1 2.48207e-314 0 0 0 
-0.341477 56.9601 108.958 0.02 0.616362 4502.69 10957.9 0.519176 115 32 1 2.48207e-314 0 0 0 
-0.309013 57.0305 104.35 0.02 0.616051 4499.59 10955.9 0.519438 116 32 1 2.48207e-314 0 0 0 
-0.276533 57.097 99.7669 0.02 0.615752 4496.62 10954 0.51969 117 32 1 2.48207e-314 0 0 0 
-0.244038 57.1599 95.2192 0.02 0.615465 4493.77 10952.1 0.519932 118 32 1 2.48207e-314 0 0 0 
-0.211527 57.2193 90.7179 0.02 0.615191 4491.03 10950.4 0.520164 119 32 1 2.48207e-314 0 0 0 
-0.179003 57.2752 86.2737 0.02 0.614928 4488.41 10948.6 0.520386 120 32 1 2.48207e-314 0 0 0 
-0.146465 57.3278 81.8972 0.02 0.614677 4485.9 10947 0.520598 121 32 1 2.48207e-314 0 0 0 
-0.113914 57.3773 77.5981 0.02 0.614438 4483.49 10945.4 0.520801 122 32 1 2.48207e-314 0 0 0 
-0.0813521 57.4237 73.3848 0.02 0.614211 4481.18 10943.8 0.520994 123 32 1 2.48207e-314 0 0 0 
-0.0487784 57.4671 69.2639 0.02 0.613995 4478.97 10942.2 0.521177 124 32 1 2.48207e-314 0 0 0 
-0.0161935 57.5076 65.241 0.02 0.61379 4476.84 10940.7 0.521351 125 32 1 2.48207e-314 0 0 0 
0.0164021 57.5454 61.3203 0.02 0.613595 4474.8 10939.1 0.521516 126 32 1 2.48207e-314 0 0 0 
0.0490081 57.5807 57.5059 0.02 0.613411 4472.83 10937.6 0.521673 127 32 1 2.48207e-314 0 0 0 
0.081624 57.6135 53.8022 0.02 0.613237 4470.93 10936.1 0.521821 128 32 1 2.48207e-314 0 0 0 
0.114249 57.6441 50.2141 0.02 0.613072 4469.09 10934.5 0.521962 129 32 1 2.48207e-314 0 0 0 
0.146882 57.6724 46.747 0.02 0.612914 4467.3 10933 0.522096 130 32 1 2.48207e-314 0 0 0 
0.179522 57.6987 43.407 0.02 0.612763 4465.56 10931.4 0.522224 131 32 1 2.48207e-314 0 0 0 
0.212168 57.723 40.1999 0.02 0.612619 4463.85 10929.8 0.522348 132 32 1 2.48207e-314 0 0 0 
0.24482 57.7454 37.131 0.02 0.612478 4462.16 10928.2 0.522468 133 32 1 2.48207e-314 0 0 0 
0.277477 57.7659 34.2046 0.02 0.61234 4460.5 10926.5 0.522586 134 32 1 2.48207e-314 0 0 0 
0.310141 57.7848 31.4229 0.02 0.612203 4458.85 10924.9 0.522703 135 32 1 2.48207e-314 0 0 0 
0.342812 57.8021 28.7855 0.02 0.612065 4457.21 10923.4 0.522821 136 32 1 2.48207e-314 0 0 0 
0.375491 57.8179 26.289 0.02 0.611923 4455.56 10921.9 0.522942 137 32 1 2.48207e-314 0 0 0 
0.408178 57.8326 23.9282 0.02 0.611775 4453.92 10920.5 0.523068 138 32 1 2.48207e-314 0 0 0 
0.440872 57.8461 21.6979 0.02 0.611619 4452.26 10919.2 0.523201 139 32 1 2.48207e-314 0 0 0 
0.473573 57.8587 19.5952 0.02 0.611451 4450.61 10918.2 0.523345 140 32 1 2.48207e-314 0 0 0 
0.50628 57.8703 17.6203 0.02 0.611268 4448.96 10917.4 0.523502 141 32 1 2.48207e-314 0 0 0 
0.538993 57.8811 15.7762 0.02 0.611067 4447.31 10916.9 0.523674 142 32 1 2.48207e-314 0 0 0 
0.571711 57.8913 14.0663 0.02 0.610844 4445.67 10916.9 0.523866 143 32 1 2.48207e-314 0 0 0 
0.604439 57.901 12.4925 0.02 0.610595 4444.06 10917.4 0.524079 144 32 1 2.48207e-314 0 0 0 
0.637178 57.9103 11.0545 0.02 0.610317 4442.5 10918.5 0.524317 145 32 1 2.48207e-314 0 0 0 
0.669934 57.9193 9.74966 0.02 0.610006 4440.99 10920.4 0.524585 146 32 1 2.48207e-314 0 0 0 
0.702709 57.9282 8.57269 0.02 0.609659 4439.58 10923.1 0.524884 147 32 1 2.48207e-314 0 0 0 
0.735506 57.9372 7.51475 0.02 0.609271 4438.27 10926.9 0.525218 148 32 1 2.48207e-314 0 0 0 
0.768326 57.9464 6.56027 0.02 0.608839 4437.12 10931.8 0.52559 149 32 1 2.48207e-314 0 0 0 
0.801167 57.9558 5.68609 0.02 0.608361 4436.16 10938 0.526003 150 32 1 2.48207e-314 0 0 0 
0.834029 57.9653 4.8674 0.02 0.607835 4435.43 10945.6 0.526458 151 32 1 2.48207e-314 0 0 0 
0.866911 57.975 4.08988 0.02 0.60726 4434.99 10954.9 0.526957 152 32 1 2.48207e-314 0 0 0 
0.899816 57.985 3.35658 0.02 0.606635 4434.88 10965.9 0.5275 153 32 1 2.48207e-314 0 0 0 
0.932753 57.9955 2.68373 0.02 0.60596 4435.16 10978.9 0.528087 154 32 1 2.48207e-314 0 0 0 
0.965732 58.0069 2.09551 0.02 0.605238 4435.9 10993.8 0.528718 155 32 1 2.48207e-314 0 0 0 
0.998767 58.0197 1.60053 0.02 0.604469 4437.15 11010.9 0.52939 156 32 1 2.48207e-314 0 0 0 
1.03187 58.0339 1.17179 0.02 0.603658 4438.96 11030.2 0.530102 157 32 1 2.48207e-314 0 0 0 
1.06503 58.0487 0.775181 0.02 0.602809 4441.41 11051.8 0.530848 158 32 1 2.48207e-314 0 0 0 
1.09824 58.0632 0.345173 0.02 0.601933 4444.56 11075.7 0.53162 159 32 1 2.48207e-314 0 0 0 
1.13149 58.0767 -0.129042 0.02 0.601041 4448.47 11101.9 0.53241 160 32 1 2.48207e-314 0 0 0 
1.16476 58.0892 -0.634139 0.02 0.600147 4453.18 11130.2 0.533203 161 32 1 2.48207e-314 0 0 0 
1.19807 58.1015 -1.14757 0.02 0.599266 4458.75 11160.5 0.533986 162 32 1 2.48207e-314 0 0 0 
1.23143 58.1146 -1.69593 0.02 0.598416 4465.2 11192.6 0.534745 163 32 1 2.48207e-314 0 0 0 
1.26487 58.1288 -2.31278 0.02 0.597615 4472.57 11226 0.535462 164 32 1 2.48207e-314 0 0 0 
1.29841 58.1437 -3.00915 0.02 0.596884 4480.87 11260.6 0.536117 165 33 1 2.48207e-314 0 0 0 
1.33204 58.1578 -3.78039 0.02 0.596252 4490.12 11295.9 0.536686 166 33 1 2.48207e-314 0 0 0 
1.36574 58.1705 -4.45927 0.02 0.595748 4500.29 11331 0.53714 167 33 1 2.48207e-314 0 0 0 
1.39948 58.1813 -5.03886 0.02 0.595406 4511.34 11365.4 0.537448 168 33 1 2.48207e-314 0 0 0 
1.43322 58.1895 -5.45485 0.02 0.59526 4523.18 11398 0.537581 169 33 1 2.48207e-314 0 0 0 
1.46696 58.1959 -5.86387 0.02 0.595343 4535.71 11428 0.537506 170 33 1 2.48207e-314 0 0 0 
1.50068 58.1975 -6.59582 0.02 0.595694 4548.8 11454.2 0.537188 171 33 1 2.48207e-314 0 0 0 
1.53433 58.1902 -7.68551 0.02 0.59636 4562.32 11475.4 0.536588 172 33 1 2.48207e-314 0 0 0 
1.56787 58.1744 -8.70112 0.02 0.597394 4576.07 11490.1 0.53566 173 32 1 2.48207e-314 0 0 0 
1.60138 58.1597 -9.21607 0.02 0.598853 4589.88 11496.7 0.534355 174 32 1 2.48207e-314 0 0 0 
1.63502 58.1534 -9.41009 0.02 0.600801 4603.57 11493.6 0.532622 175 33 1 2.48207e-314 0 0 0 
1.66882 58.1516 -9.44974 0.02 0.6033 4616.92 11479.1 0.530416 176 33 1 2.48207e-314 0 0 0 
1.70265 58.149 -9.60934 0.02 0.606407 4629.61 11451.7 0.527698 177 33 1 2.48207e-314 0 0 0 
1.73636 58.1359 -10.1651 0.02 0.610177 4641.31 11409.8 0.524438 178 33 1 2.48207e-314 0 0 0 
1.76959 58.0969 -11.0031 0.02 0.614644 4651.56 11351.8 0.520627 179 34 1 2.48207e-314 0 0 0 
1.80203 58.0317 -11.3449 0.02 0.619829 4659.89 11277 0.516272 180 34 1 2.48207e-314 0 0 0 
1.8337 57.958 -10.4777 0.02 0.625769 4666 11184.6 0.511371 181 34 1 2.48207e-314 0 0 0 
1.8652 57.9116 -8.95469 0.02 0.632633 4670 11072.8 0.505823 182 34 1 2.48207e-314 0 0 0 
1.89732 57.8927 -7.71708 0.02 0.640699 4671.76 10937.5 0.499455 183 35 1 2.48207e-314 0 0 0 
1.92983 57.8794 -6.84706 0.02 0.650099 4670.65 10776.8 0.492233 184 34 1 2.48207e-314 0 0 0 
1.96223 57.8535 -6.48316 0.02 0.66087 4666.05 10590.7 0.48421 185 35 1 2.48207e-314 0 0 0 
1.99396 57.8038 -6.4314 0.02 0.672997 4657.49 10380.8 0.475485 186 35 1 2.48207e-314 0 0 0 
2.02425 57.7098 -6.44421 0.02 0.686248 4644.54 10152 0.466304 187 35 1 2.48207e-314 0 0 0 
2.0521 57.604 -3.78959 0.02 0.700035 4628.06 9916.79 0.45712 188 36 1 2.48207e-314 0 0 0 
2.07971 57.5377 -1.76289 0.02 0.715386 4608.74 9663.48 0.447311 189 36 1 2.48207e-314 0 0 0 
2.10747 57.4888 0.305666 0.02 0.732704 4585.84 9388.2 0.436738 190 36 1 2.48207e-314 0 0 0 
2.13609 57.4746 2.00118 0.02 0.752767 4559.16 9084.82 0.425098 191 36 1 2.48207e-314 0 0 0 
2.16383 57.4482 3.85842 0.02 0.774629 4528.7 8769.44 0.413101 192 37 1 2.48207e-314 0 0 0 
2.19257 57.4574 4.75131 0.02 0.800292 4493.91 8423.02 0.399854 193 37 1 2.48207e-314 0 0 0 
2.21949 57.3613 4.84945 0.02 0.827618 4453.04 8070.84 0.386652 194 38 1 2.48207e-314 0 0 0 
2.24256 57.259 7.12516 0.02 0.853969 4412.36 7750.34 0.374721 195 37 1 2.48207e-314 0 0 0 
2.26488 57.1956 8.63993 0.02 0.882369 4370.79 7430.21 0.36266 196 37 1 2.48207e-314 0 0 0 
2.28726 57.1775 8.82566 0.02 0.914035 4328.14 7102.81 0.350096 197 38 1 2.48207e-314 0 0 0 
2.3089 57.2045 9.03595 0.02 0.948074 4286.34 6781.65 0.337527 198 38 1 2.48207e-314 0 0 0 
2.32778 57.2434 10.537 0.02 0.980893 4248.83 6497.39 0.326233 199 38 1 2.48207e-314 0 0 0 
2.35915 57.1416 13.4034 0.02 1.04322 4176.3 6004.93 0.306743 200 38 1 2.48206e-314 0 0 0 
2.37595 57.1531 13.0783 0.02 1.08135 4137.42 5739.21 0.295926 201 38 1 2.48206e-314 0 0 0 
2.39349 57.1701 11.8487 0.02 1.12528 4095.21 5458.89 0.284373 202 38 1 2.48206e-314 0 0 0 
2.41057 57.1728 10.8485 0.02 1.17271 4051.95 5182.78 0.272872 203 38 1 2.48206e-314 0 0 0 
2.42659 57.1562 11.0692 0.02 1.22205 4009.23 4921.11 0.261856 204 38 1 2.48206e-314 0 0 0 
2.44254 57.1272 11.7733 0.02 1.27651 3965.69 4660.01 0.250684 205 39 1 2.48206e-314 0 0 0 
2.46167 57.1567 10.1983 0.02 1.34991 3918.39 4354.03 0.237053 206 38 1 2.48206e-314 0 0 0 
2.4785 57.2309 10.2498 0.02 1.42225 3879.52 4091.6 0.224996 207 38 1 2.48206e-314 0 0 0 
2.49267 57.2621 9.8533 0.02 1.48994 3844.89 3870.83 0.214774 208 38 1 2.48206e-314 0 0 0 
2.50632 57.2985 8.78593 0.02 1.56224 3812.33 3660.42 0.204834 209 38 1 2.48206e-314 0 0 0 
2.51857 57.3158 7.30015 0.02 1.63403 3782.74 3472.44 0.195834 210 37 1 2.48206e-314 0 0 0 
2.52972 57.3141 6.9135 0.02 1.70586 3755.18 3301.99 0.187588 211 37 1 2.48206e-314 0 0 0 
2.54188 57.3311 4.47051 0.02 1.79241 3728.28 3120.05 0.178531 212 37 1 2.48206e-314 0 0 0 
2.5543 57.3951 2.97186 0.02 1.8897 3705.99 2941.71 0.169339 213 36 1 2.48206e-314 0 0 0 
2.56589 57.4607 2.20788 0.02 1.98925 3687.79 2780.77 0.160865 214 36 1 2.48206e-314 0 0 0 
