# Time [s]: 0.0441343
# Columns: pos [m], vel [m/s], acc [m/s^2], mass [kg], dens [kg/m^3], pres [Pa], ene [J/kg], sml [m], id, neighbor, alpha, gradh, ...additional?
# Additional arrays: grad_velocity_0(vector) grad_pressure(vector) grad_density(vector) 
-3.85344 9.58514 78.7386 0.02 0.618419 5896.73 14302.9 0.517448 0 38 1 2.48207e-314 0 0 0 
-3.84746 8.99603 131.744 0.02 0.617621 5855.63 14221.6 0.518117 1 37 1 2.48207e-314 0 0 0 
-3.83832 8.31473 166.786 0.02 0.616559 5792.12 14091.6 0.51901 2 37 1 2.48207e-314 0 0 0 
-3.82502 7.66323 162.976 0.02 0.615323 5702.89 13902.4 0.520052 3 37 1 2.48207e-314 0 0 0 
-3.80719 7.18073 132.642 0.02 0.614207 5592.16 13657.2 0.520997 4 36 1 2.48207e-314 0 0 0 
-3.78392 7.05418 85.807 0.02 0.613634 5466.83 13363.7 0.521483 5 36 1 2.48207e-314 0 0 0 
-3.75307 7.66042 58.851 0.02 0.614296 5336.27 13030.5 0.520921 6 36 1 2.48207e-314 0 0 0 
-3.70942 9.81499 116.259 0.02 0.617155 5212.14 12668.4 0.518509 7 35 1 2.48207e-314 0 0 0 
-3.65609 13.0428 253.598 0.02 0.621182 5115.33 12352.4 0.515147 8 34 1 2.48207e-314 0 0 0 
-3.61383 15.0424 312.621 0.02 0.62382 5057.69 12161.6 0.512968 9 33 1 2.48207e-314 0 0 0 
-3.58417 15.5034 294.81 0.02 0.625748 5021.26 12036.8 0.511388 10 32 1 2.48207e-314 0 0 0 
-3.55775 15.5854 255.331 0.02 0.627949 4993.68 11928.7 0.509596 11 31 1 2.48207e-314 0 0 0 
-3.53064 15.8115 224.084 0.02 0.630627 4971.26 11824.8 0.507431 12 31 1 2.48207e-314 0 0 0 
-3.50201 16.2506 207.566 0.02 0.633685 4952.74 11723.9 0.504983 13 30 1 2.48207e-314 0 0 0 
-3.47216 16.8805 212.829 0.02 0.636883 4937.36 11628.8 0.502447 14 31 1 2.48207e-314 0 0 0 
-3.44183 17.6352 232.626 0.02 0.639961 4924.61 11542.9 0.50003 15 32 1 2.48207e-314 0 0 0 
-3.41086 18.5265 263.997 0.02 0.642749 4913.65 11467.3 0.497861 16 33 1 2.48207e-314 0 0 0 
-3.37909 19.4021 286.41 0.02 0.645156 4904.26 11402.7 0.496004 17 34 1 2.48207e-314 0 0 0 
-3.34619 20.3216 297.84 0.02 0.647083 4896.44 11350.6 0.494527 18 33 1 2.48207e-314 0 0 0 
-3.31353 21.1964 299.754 0.02 0.648436 4890.25 11312.6 0.493495 19 31 1 2.48207e-314 0 0 0 
-3.28192 21.9132 291.275 0.02 0.649402 4885.9 11285.7 0.492761 20 31 1 2.48207e-314 0 0 0 
-3.25124 22.5184 279.27 0.02 0.650177 4883.32 11266.3 0.492174 21 31 1 2.48207e-314 0 0 0 
-3.22122 23.0604 268.948 0.02 0.650866 4882.2 11251.8 0.491652 22 32 1 2.48207e-314 0 0 0 
-3.19161 23.5801 262.07 0.02 0.651511 4882.03 11240.2 0.491166 23 32 1 2.48207e-314 0 0 0 
-3.16209 24.1106 260.577 0.02 0.652121 4882.31 11230.4 0.490707 24 31 1 2.48207e-314 0 0 0 
-3.13208 24.694 259.608 0.02 0.652656 4882.45 11221.5 0.490305 25 32 1 2.48207e-314 0 0 0 
-3.10147 25.3448 260.381 0.02 0.653056 4881.98 11213.5 0.490004 26 32 1 2.48207e-314 0 0 0 
-3.07047 26.0382 263.761 0.02 0.653259 4880.64 11207 0.489852 27 32 1 2.48207e-314 0 0 0 
-3.03936 26.7285 266.017 0.02 0.653253 4878.5 11202.2 0.489856 28 31 1 2.48207e-314 0 0 0 
-3.00838 27.3847 264.547 0.02 0.653078 4875.85 11199.1 0.489987 29 31 1 2.48207e-314 0 0 0 
-2.9776 27.9996 259.683 0.02 0.652792 4872.94 11197.3 0.490202 30 31 1 2.48207e-314 0 0 0 
-2.94699 28.5818 252.83 0.02 0.652444 4869.91 11196.3 0.490463 31 31 1 2.48207e-314 0 0 0 
-2.9165 29.1456 245.631 0.02 0.652069 4866.8 11195.6 0.490745 32 31 1 2.48207e-314 0 0 0 
-2.88602 29.7066 239.772 0.02 0.651683 4863.56 11194.8 0.491036 33 31 1 2.48207e-314 0 0 0 
-2.8555 30.2738 235.664 0.02 0.651286 4860.12 11193.6 0.491335 34 32 1 2.48207e-314 0 0 0 
-2.8249 30.8514 233.07 0.02 0.650873 4856.37 11192.1 0.491647 35 32 1 2.48207e-314 0 0 0 
-2.79419 31.4373 231.363 0.02 0.650436 4852.26 11190.2 0.491978 36 32 1 2.48207e-314 0 0 0 
-2.7634 32.0261 229.714 0.02 0.649969 4847.79 11187.9 0.492331 37 32 1 2.48207e-314 0 0 0 
-2.73255 32.6126 227.566 0.02 0.649476 4843.01 11185.3 0.492705 38 32 1 2.48207e-314 0 0 0 
-2.70167 33.1927 224.724 0.02 0.648959 4837.98 11182.6 0.493098 39 32 1 2.48207e-314 0 0 0 
-2.67078 33.7638 221.291 0.02 0.648426 4832.79 11179.8 0.493502 40 32 1 2.48207e-314 0 0 0 
-2.63989 34.3243 217.404 0.02 0.647887 4827.5 11176.8 0.493913 41 32 1 2.48207e-314 0 0 0 
-2.60902 34.8752 213.346 0.02 0.647349 4822.17 11173.8 0.494324 42 32 1 2.48207e-314 0 0 0 
-2.57814 35.4192 209.47 0.02 0.646817 4816.81 11170.6 0.494731 43 32 1 2.48207e-314 0 0 0 
-2.54724 35.9591 206.028 0.02 0.646291 4811.42 11167.1 0.495133 44 32 1 2.48207e-314 0 0 0 
-2.51631 36.4966 203.093 0.02 0.645772 4805.99 11163.5 0.495531 45 32 1 2.48207e-314 0 0 0 
-2.48534 37.0322 200.581 0.02 0.645256 4800.5 11159.6 0.495928 46 32 1 2.48207e-314 0 0 0 
-2.45433 37.5649 198.31 0.02 0.64474 4794.96 11155.7 0.496324 47 32 1 2.48207e-314 0 0 0 
-2.42329 38.0933 196.075 0.02 0.644224 4789.37 11151.6 0.496721 48 32 1 2.48207e-314 0 0 0 
-2.39221 38.6158 193.715 0.02 0.643707 4783.76 11147.5 0.497121 49 32 1 2.48207e-314 0 0 0 
-2.36112 39.1313 191.17 0.02 0.64319 4778.13 11143.3 0.49752 50 32 1 2.48207e-314 0 0 0 
-2.33 39.6394 188.478 0.02 0.642673 4772.51 11139.1 0.49792 51 32 1 2.48207e-314 0 0 0 
-2.29886 40.1401 185.74 0.02 0.642159 4766.91 11135 0.498319 52 32 1 2.48207e-314 0 0 0 
-2.26771 40.6338 183.067 0.02 0.641648 4761.34 11130.8 0.498715 53 32 1 2.48207e-314 0 0 0 
-2.23653 41.121 180.537 0.02 0.641141 4755.79 11126.7 0.49911 54 32 1 2.48207e-314 0 0 0 
-2.20533 41.6019 178.18 0.02 0.640636 4750.27 11122.5 0.499504 55 32 1 2.48207e-314 0 0 0 
-2.1741 42.0767 175.986 0.02 0.640134 4744.77 11118.3 0.499896 56 32 1 2.48207e-314 0 0 0 
-2.14285 42.545 173.917 0.02 0.639632 4739.28 11114.2 0.500287 57 32 1 2.48207e-314 0 0 0 
-2.11157 43.0068 171.927 0.02 0.639132 4733.82 11110 0.500679 58 32 1 2.48207e-314 0 0 0 
-2.08026 43.4617 169.973 0.02 0.638632 4728.37 11105.9 0.501071 59 32 1 2.48207e-314 0 0 0 
-2.04893 43.9093 168.029 0.02 0.638133 4722.94 11101.8 0.501463 60 32 1 2.48207e-314 0 0 0 
-2.01757 44.3493 166.089 0.02 0.637634 4717.53 11097.8 0.501855 61 32 1 2.48207e-314 0 0 0 
-1.98619 44.7818 164.167 0.02 0.637137 4712.15 11093.8 0.502247 62 32 1 2.48207e-314 0 0 0 
-1.95479 45.2065 162.281 0.02 0.63664 4706.8 11089.8 0.502639 63 32 1 2.48207e-314 0 0 0 
-1.92336 45.6236 160.455 0.02 0.636144 4701.47 11085.9 0.503031 64 32 1 2.48207e-314 0 0 0 
-1.89191 46.033 158.702 0.02 0.635649 4696.17 11082 0.503422 65 32 1 2.48207e-314 0 0 0 
-1.86043 46.4348 157.03 0.02 0.635156 4690.9 11078.2 0.503813 66 32 1 2.48207e-314 0 0 0 
-1.82893 46.8289 155.434 0.02 0.634664 4685.65 11074.4 0.504204 67 32 1 2.48207e-314 0 0 0 
-1.79741 47.2153 153.904 0.02 0.634173 4680.43 11070.6 0.504595 68 32 1 2.48207e-314 0 0 0 
-1.76585 47.5939 152.429 0.02 0.633682 4675.23 11066.9 0.504985 69 32 1 2.48207e-314 0 0 0 
-1.73428 47.9647 150.997 0.02 0.633193 4670.06 11063.2 0.505375 70 32 1 2.48207e-314 0 0 0 
-1.70268 48.3274 149.601 0.02 0.632706 4664.92 11059.5 0.505764 71 32 1 2.48207e-314 0 0 0 
-1.67106 48.6822 148.237 0.02 0.632219 4659.81 11055.9 0.506154 72 32 1 2.48207e-314 0 0 0 
-1.63941 49.029 146.904 0.02 0.631734 4654.73 11052.3 0.506542 73 32 1 2.48207e-314 0 0 0 
-1.60774 49.3677 145.604 0.02 0.631251 4649.67 11048.8 0.50693 74 32 1 2.48207e-314 0 0 0 
-1.57604 49.6984 144.335 0.02 0.630769 4644.65 11045.2 0.507317 75 32 1 2.48207e-314 0 0 0 
-1.54432 50.0211 143.098 0.02 0.63029 4639.66 11041.8 0.507703 76 32 1 2.48207e-314 0 0 0 
-1.51258 50.3358 141.888 0.02 0.629812 4634.7 11038.3 0.508088 77 32 1 2.48207e-314 0 0 0 
-1.48081 50.6426 140.702 0.02 0.629337 4629.78 11034.9 0.508471 78 32 1 2.48207e-314 0 0 0 
-1.44901 50.9414 139.531 0.02 0.628865 4624.89 11031.6 0.508854 79 32 1 2.48207e-314 0 0 0 
-1.4172 51.2323 138.369 0.02 0.628394 4620.04 11028.2 0.509234 80 32 1 2.48207e-314 0 0 0 
-1.38536 51.5153 137.209 0.02 0.627927 4615.22 11024.9 0.509613 81 32 1 2.48207e-314 0 0 0 
-1.35349 51.7905 136.042 0.02 0.627462 4610.45 11021.7 0.509991 82 32 1 2.48207e-314 0 0 0 
-1.3216 52.0578 134.863 0.02 0.627001 4605.72 11018.5 0.510366 83 32 1 2.48207e-314 0 0 0 
-1.28969 52.3174 133.666 0.02 0.626543 4601.03 11015.3 0.510739 84 32 1 2.48207e-314 0 0 0 
-1.25776 52.5693 132.445 0.02 0.626088 4596.38 11012.2 0.51111 85 32 1 2.48207e-314 0 0 0 
-1.2258 52.8136 131.194 0.02 0.625637 4591.78 11009.1 0.511478 86 32 1 2.48207e-314 0 0 0 
-1.19382 53.0503 129.909 0.02 0.62519 4587.23 11006 0.511844 87 32 1 2.48207e-314 0 0 0 
-1.16181 53.2795 128.583 0.02 0.624747 4582.73 11003 0.512207 88 32 1 2.48207e-314 0 0 0 
-1.12979 53.5013 127.211 0.02 0.624309 4578.29 11000.1 0.512567 89 32 1 2.48207e-314 0 0 0 
-1.09774 53.7158 125.787 0.02 0.623875 4573.89 10997.2 0.512924 90 32 1 2.48207e-314 0 0 0 
-1.06567 53.9232 124.306 0.02 0.623445 4569.56 10994.3 0.513277 91 32 1 2.48207e-314 0 0 0 
-1.03357 54.1233 122.762 0.02 0.623021 4565.28 10991.5 0.513626 92 32 1 2.48207e-314 0 0 0 
-1.00146 54.3165 121.151 0.02 0.622602 4561.07 10988.7 0.513972 93 32 1 2.48207e-314 0 0 0 
-0.96932 54.5027 119.469 0.02 0.622188 4556.92 10986 0.514314 94 32 1 2.48207e-314 0 0 0 
-0.937161 54.6822 117.711 0.02 0.62178 4552.83 10983.4 0.514651 95 32 1 2.48207e-314 0 0 0 
-0.904982 54.855 115.877 0.02 0.621378 4548.82 10980.8 0.514984 96 32 1 2.48207e-314 0 0 0 
-0.872781 55.0212 113.964 0.02 0.620982 4544.87 10978.3 0.515313 97 32 1 2.48207e-314 0 0 0 
-0.84056 55.1809 111.972 0.02 0.620592 4541 10975.8 0.515636 98 32 1 2.48207e-314 0 0 0 
-0.808319 55.3343 109.899 0.02 0.620209 4537.2 10973.4 0.515955 99 32 1 2.48207e-314 0 0 0 
-0.776058 55.4816 107.747 0.02 0.619833 4533.48 10971.1 0.516268 100 32 1 2.48207e-314 0 0 0 
-0.743778 55.6228 105.517 0.02 0.619463 4529.84 10968.8 0.516576 101 32 1 2.48207e-314 0 0 0 
-0.711478 55.758 103.209 0.02 0.619101 4526.29 10966.6 0.516879 102 32 1 2.48207e-314 0 0 0 
-0.67916 55.8874 100.825 0.02 0.618746 4522.81 10964.5 0.517175 103 32 1 2.48207e-314 0 0 0 
-0.646823 56.0112 98.3675 0.02 0.618398 4519.43 10962.4 0.517466 104 32 1 2.48207e-314 0 0 0 
-0.614468 56.1294 95.8396 0.02 0.618059 4516.13 10960.4 0.51775 105 32 1 2.48207e-314 0 0 0 
-0.582095 56.2423 93.2453 0.02 0.617727 4512.91 10958.5 0.518028 106 32 1 2.48207e-314 0 0 0 
-0.549705 56.35 90.5895 0.02 0.617404 4509.79 10956.7 0.5183 107 32 1 2.48207e-314 0 0 0 
-0.517298 56.4525 87.8782 0.02 0.617088 4506.77 10954.9 0.518564 108 32 1 2.48207e-314 0 0 0 
-0.484875 56.5501 85.1178 0.02 0.616782 4503.83 10953.2 0.518822 109 32 1 2.48207e-314 0 0 0 
-0.452435 56.643 82.3152 0.02 0.616484 4500.99 10951.6 0.519073 110 32 1 2.48207e-314 0 0 0 
-0.419981 56.7311 79.4777 0.02 0.616194 4498.24 10950.1 0.519317 111 32 1 2.48207e-314 0 0 0 
-0.387511 56.8148 76.6119 0.02 0.615914 4495.59 10948.6 0.519553 112 32 1 2.48207e-314 0 0 0 
-0.355027 56.894 73.7244 0.02 0.615643 4493.03 10947.2 0.519782 113 32 1 2.48207e-314 0 0 0 
-0.322528 56.969 70.8215 0.02 0.615381 4490.57 10945.8 0.520003 114 32 1 2.48207e-314 0 0 0 
-0.290016 57.04 67.9093 0.02 0.615128 4488.19 10944.5 0.520217 115 32 1 2.48207e-314 0 0 0 
-0.257491 57.1069 64.9941 0.02 0.614885 4485.91 10943.3 0.520422 116 32 1 2.48207e-314 0 0 0 
-0.224952 57.1701 62.0828 0.02 0.614652 4483.72 10942.1 0.52062 117 32 1 2.48207e-314 0 0 0 
-0.192402 57.2296 59.1827 0.02 0.614428 4481.62 10941 0.52081 118 32 1 2.48207e-314 0 0 0 
-0.159839 57.2856 56.3018 0.02 0.614214 4479.61 10939.9 0.520991 119 32 1 2.48207e-314 0 0 0 
-0.127266 57.3382 53.4484 0.02 0.614009 4477.67 10938.8 0.521165 120 32 1 2.48207e-314 0 0 0 
-0.0946819 57.3876 50.6306 0.02 0.613814 4475.82 10937.7 0.52133 121 32 1 2.48207e-314 0 0 0 
-0.0620885 57.4339 47.856 0.02 0.613629 4474.04 10936.7 0.521488 122 32 1 2.48207e-314 0 0 0 
-0.0294858 57.4771 45.1313 0.02 0.613452 4472.33 10935.7 0.521638 123 32 1 2.48207e-314 0 0 0 
0.00312558 57.5175 42.4617 0.02 0.613285 4470.69 10934.6 0.52178 124 32 1 2.48207e-314 0 0 0 
0.0357456 57.555 39.8512 0.02 0.613127 4469.11 10933.6 0.521914 125 32 1 2.48207e-314 0 0 0 
0.0683739 57.5899 37.3031 0.02 0.612978 4467.58 10932.5 0.522042 126 32 1 2.48207e-314 0 0 0 
0.10101 57.6224 34.8203 0.02 0.612836 4466.1 10931.4 0.522162 127 32 1 2.48207e-314 0 0 0 
0.133655 57.6524 32.406 0.02 0.612702 4464.65 10930.2 0.522276 128 32 1 2.48207e-314 0 0 0 
0.166306 57.6803 30.0639 0.02 0.612575 4463.25 10929.1 0.522385 129 32 1 2.48207e-314 0 0 0 
0.198963 57.7061 27.7985 0.02 0.612454 4461.87 10927.8 0.522488 130 32 1 2.48207e-314 0 0 0 
0.231625 57.7298 25.615 0.02 0.612338 4460.51 10926.6 0.522588 131 32 1 2.48207e-314 0 0 0 
0.264292 57.7517 23.5187 0.02 0.612225 4459.16 10925.3 0.522684 132 32 1 2.48207e-314 0 0 0 
0.296963 57.7718 21.5147 0.02 0.612114 4457.81 10924 0.522778 133 32 1 2.48207e-314 0 0 0 
0.329638 57.7902 19.6078 0.02 0.612004 4456.47 10922.6 0.522872 134 32 1 2.48207e-314 0 0 0 
0.362318 57.807 17.8009 0.02 0.611893 4455.11 10921.3 0.522968 135 32 1 2.48207e-314 0 0 0 
0.395004 57.8223 16.0945 0.02 0.611778 4453.75 10920 0.523065 136 32 1 2.48207e-314 0 0 0 
0.427696 57.8363 14.4862 0.02 0.611658 4452.36 10918.7 0.523168 137 32 1 2.48207e-314 0 0 0 
0.460395 57.8492 12.9714 0.02 0.61153 4450.96 10917.6 0.523277 138 32 1 2.48207e-314 0 0 0 
0.493101 57.8611 11.5458 0.02 0.611392 4449.53 10916.6 0.523396 139 32 1 2.48207e-314 0 0 0 
0.525813 57.8721 10.2067 0.02 0.611239 4448.09 10915.8 0.523527 140 32 1 2.48207e-314 0 0 0 
0.55853 57.8823 8.95446 0.02 0.611069 4446.64 10915.2 0.523672 141 32 1 2.48207e-314 0 0 0 
0.591251 57.8918 7.79224 0.02 0.610879 4445.18 10915 0.523835 142 32 1 2.48207e-314 0 0 0 
0.623978 57.9007 6.72378 0.02 0.610665 4443.72 10915.3 0.524019 143 32 1 2.48207e-314 0 0 0 
0.656714 57.9092 5.75187 0.02 0.610424 4442.28 10916.1 0.524226 144 32 1 2.48207e-314 0 0 0 
0.689461 57.9175 4.87774 0.02 0.610151 4440.88 10917.5 0.52446 145 32 1 2.48207e-314 0 0 0 
0.722225 57.9255 4.1009 0.02 0.609844 4439.54 10919.7 0.524725 146 32 1 2.48207e-314 0 0 0 
0.755007 57.9336 3.41854 0.02 0.609498 4438.28 10922.8 0.525023 147 32 1 2.48207e-314 0 0 0 
0.787812 57.9419 2.824 0.02 0.609109 4437.13 10926.9 0.525357 148 32 1 2.48207e-314 0 0 0 
0.82064 57.9504 2.30322 0.02 0.608676 4436.13 10932.3 0.525731 149 32 1 2.48207e-314 0 0 0 
0.853489 57.9592 1.83401 0.02 0.608196 4435.33 10938.9 0.526146 150 32 1 2.48207e-314 0 0 0 
0.886359 57.9682 1.3916 0.02 0.607666 4434.76 10947 0.526605 151 32 1 2.48207e-314 0 0 0 
0.91925 57.9773 0.961718 0.02 0.607085 4434.47 10956.8 0.527109 152 32 1 2.48207e-314 0 0 0 
0.952164 57.9867 0.547776 0.02 0.606455 4434.53 10968.3 0.527657 153 32 1 2.48207e-314 0 0 0 
0.98511 57.9967 0.167111 0.02 0.605775 4434.98 10981.8 0.528249 154 32 1 2.48207e-314 0 0 0 
1.0181 58.0078 -0.154807 0.02 0.605047 4435.89 10997.2 0.528885 155 32 1 2.48207e-314 0 0 0 
1.05115 58.0203 -0.408336 0.02 0.604273 4437.31 11014.8 0.529562 156 32 1 2.48207e-314 0 0 0 
1.08426 58.0341 -0.61527 0.02 0.603458 4439.3 11034.7 0.530278 157 32 1 2.48207e-314 0 0 0 
1.11743 58.0487 -0.811526 0.02 0.602606 4441.92 11056.8 0.531026 158 32 1 2.48207e-314 0 0 0 
1.15066 58.0629 -1.0589 0.02 0.601729 4445.25 11081.2 0.531801 159 32 1 2.48207e-314 0 0 0 
1.18392 58.076 -1.3612 0.02 0.600838 4449.33 11107.8 0.53259 160 32 1 2.48207e-314 0 0 0 
1.2172 58.0881 -1.70259 0.02 0.599947 4454.21 11136.5 0.53338 161 32 1 2.48207e-314 0 0 0 
1.25052 58.1 -2.06434 0.02 0.599073 4459.93 11167.1 0.534159 162 32 1 2.48207e-314 0 0 0 
1.28389 58.1127 -2.47605 0.02 0.598232 4466.53 11199.3 0.534909 163 32 1 2.48207e-314 0 0 0 
1.31735 58.1264 -2.97153 0.02 0.597445 4474.02 11232.9 0.535615 164 32 1 2.48207e-314 0 0 0 
1.35089 58.1407 -3.56504 0.02 0.596732 4482.43 11267.4 0.536254 165 33 1 2.48207e-314 0 0 0 
1.38454 58.1542 -4.23524 0.02 0.596121 4491.76 11302.5 0.536804 166 33 1 2.48207e-314 0 0 0 
1.41825 58.1663 -4.81388 0.02 0.595644 4501.99 11337.3 0.537233 167 33 1 2.48207e-314 0 0 0 
1.452 58.1766 -5.30624 0.02 0.595334 4513.06 11371.1 0.537513 168 33 1 2.48207e-314 0 0 0 
1.48575 58.1845 -5.62363 0.02 0.595224 4524.89 11403 0.537613 169 33 1 2.48207e-314 0 0 0 
1.5195 58.1906 -5.9754 0.02 0.595348 4537.36 11432 0.537501 170 33 1 2.48207e-314 0 0 0 
1.55322 58.1916 -6.64322 0.02 0.595745 4550.36 11457.1 0.537143 171 33 1 2.48207e-314 0 0 0 
1.58686 58.1832 -7.6532 0.02 0.596461 4563.73 11477 0.536498 172 33 1 2.48207e-314 0 0 0 
1.62039 58.1666 -8.57377 0.02 0.597549 4577.3 11490.2 0.535521 173 32 1 2.48207e-314 0 0 0 
1.65388 58.1514 -8.99633 0.02 0.599067 4590.87 11495 0.534164 174 33 1 2.48207e-314 0 0 0 
1.68752 58.145 -9.12611 0.02 0.601078 4604.29 11490.1 0.532377 175 33 1 2.48207e-314 0 0 0 
1.72132 58.1432 -9.10325 0.02 0.603645 4617.32 11473.6 0.530113 176 33 1 2.48207e-314 0 0 0 
1.75515 58.1405 -9.22445 0.02 0.606823 4629.67 11444 0.527337 177 33 1 2.48207e-314 0 0 0 
1.78884 58.127 -9.74962 0.02 0.610666 4640.99 11399.8 0.524018 178 33 1 2.48207e-314 0 0 0 
1.82203 58.0872 -10.558 0.02 0.615204 4650.82 11339.7 0.520152 179 34 1 2.48207e-314 0 0 0 
1.85442 58.0216 -10.8494 0.02 0.620457 4658.72 11262.8 0.515749 180 34 1 2.48207e-314 0 0 0 
1.88602 57.9488 -9.95164 0.02 0.62646 4664.41 11168.5 0.510807 181 34 1 2.48207e-314 0 0 0 
1.91748 57.9038 -8.43635 0.02 0.633389 4668.02 11054.9 0.505219 182 34 1 2.48207e-314 0 0 0 
1.94958 57.8859 -7.1977 0.02 0.641525 4669.4 10917.9 0.498811 183 35 1 2.48207e-314 0 0 0 
1.98208 57.8735 -6.3373 0.02 0.650997 4667.93 10755.7 0.491554 184 34 1 2.48207e-314 0 0 0 
2.01445 57.8479 -5.96579 0.02 0.661834 4663.01 10568.4 0.483505 185 35 1 2.48207e-314 0 0 0 
2.04614 57.7982 -5.9157 0.02 0.674015 4654.19 10357.8 0.474767 186 35 1 2.48207e-314 0 0 0 
2.07635 57.7043 -5.93901 0.02 0.687291 4641.06 10129 0.465596 187 35 1 2.48207e-314 0 0 0 
2.1041 57.6007 -3.39478 0.02 0.701082 4624.57 9894.52 0.456437 188 36 1 2.48207e-314 0 0 0 
2.13165 57.5362 -1.47179 0.02 0.71644 4605.31 9642.1 0.446653 189 36 1 2.48207e-314 0 0 0 
2.15937 57.4892 0.516546 0.02 0.73376 4582.56 9367.99 0.43611 190 36 1 2.48207e-314 0 0 0 
2.18798 57.4765 2.1938 0.02 0.753833 4556.1 9065.89 0.424497 191 36 1 2.48207e-314 0 0 0 
2.2157 57.4517 3.98553 0.02 0.775682 4525.99 8752.29 0.41254 192 36 1 2.48207e-314 0 0 0 
2.24445 57.4617 4.73182 0.02 0.801344 4491.59 8407.62 0.399329 193 37 1 2.48207e-314 0 0 0 
2.27127 57.3657 4.90527 0.02 0.828552 4451.3 8058.6 0.386216 194 38 1 2.48207e-314 0 0 0 
2.29425 57.2654 7.07203 0.02 0.854746 4411.38 7741.57 0.37438 195 37 1 2.48207e-314 0 0 0 
2.31652 57.2034 8.46686 0.02 0.882994 4370.57 7424.57 0.362403 196 37 1 2.48207e-314 0 0 0 
2.33888 57.1854 8.59842 0.02 0.914527 4328.63 7099.79 0.349908 197 38 1 2.48207e-314 0 0 0 
2.36054 57.2126 8.78614 0.02 0.948468 4287.49 6780.66 0.337386 198 38 1 2.48207e-314 0 0 0 
2.37946 57.2528 10.255 0.02 0.981205 4250.61 6498.05 0.32613 199 38 1 2.48207e-314 0 0 0 
2.41074 57.1535 13.1002 0.02 1.04302 4179.57 6010.74 0.3068 200 39 1 2.48206e-314 0 0 0 
2.42755 57.1648 12.7584 0.02 1.08095 4141.32 5746.76 0.296036 201 39 1 2.48206e-314 0 0 0 
2.44511 57.1806 11.5114 0.02 1.12464 4099.75 5468.09 0.284536 202 38 1 2.48206e-314 0 0 0 
2.46219 57.1824 10.4755 0.02 1.17175 4057.17 5193.72 0.273096 203 38 1 2.48206e-314 0 0 0 
2.4782 57.166 10.653 0.02 1.22068 4015.21 4933.98 0.26215 204 38 1 2.48206e-314 0 0 0 
2.49412 57.1377 11.4353 0.02 1.2746 3972.46 4674.92 0.251059 205 39 1 2.48206e-314 0 0 0 
2.51328 57.1658 9.91716 0.02 1.34746 3925.73 4370.12 0.237483 206 38 1 2.48206e-314 0 0 0 
2.53017 57.24 10.0039 0.02 1.41943 3887.32 4107.96 0.225442 207 38 1 2.48206e-314 0 0 0 
2.54437 57.2709 9.6209 0.02 1.48663 3853.1 3887.74 0.215252 208 38 1 2.48206e-314 0 0 0 
2.55805 57.3064 8.58177 0.02 1.55841 3820.83 3677.61 0.205338 209 38 1 2.48206e-314 0 0 0 
2.57032 57.3223 7.13977 0.02 1.62958 3791.46 3489.97 0.19637 210 37 1 2.48206e-314 0 0 0 
2.58146 57.3203 6.75801 0.02 1.70066 3764.18 3320.04 0.188163 211 37 1 2.48206e-314 0 0 0 
2.59364 57.3351 4.42813 0.02 1.78638 3737.32 3138.17 0.179133 212 37 1 2.48206e-314 0 0 0 
2.60611 57.3978 3.01291 0.02 1.88307 3714.96 2959.21 0.169935 213 36 1 2.48206e-314 0 0 0 
2.61776 57.4627 2.30541 0.02 1.98207 3696.63 2797.55 0.161447 214 36 1 2.48206e-314 0 0 0 
