# Time [s]: 0.0445866
# Columns: pos [m], vel [m/s], acc [m/s^2], mass [kg], dens [kg/m^3], pres [Pa], ene [J/kg], sml [m], id, neighbor, alpha, gradh, ...additional?
# Additional arrays: grad_velocity_0(vector) grad_pressure(vector) grad_density(vector) 
-3.84909 9.61988 75.0149 0.02 0.610651 5828.23 14316.6 0.524031 0 38 1 2.48207e-314 0 0 0 
-3.84337 9.05456 127.145 0.02 0.609892 5788.16 14235.9 0.524683 1 37 1 2.48207e-314 0 0 0 
-3.83454 8.38917 162.173 0.02 0.608865 5725.67 14105.9 0.525568 2 37 1 2.48207e-314 0 0 0 
-3.82154 7.73641 160.611 0.02 0.607643 5636.89 13915.2 0.526625 3 37 1 2.48207e-314 0 0 0 
-3.80393 7.24053 131.779 0.02 0.606507 5525.63 13666.1 0.527611 4 37 1 2.48207e-314 0 0 0 
-3.78072 7.09306 86.1289 0.02 0.605879 5398.55 13365.7 0.528158 5 36 1 2.48207e-314 0 0 0 
-3.7496 7.68695 58.5287 0.02 0.606476 5264.96 13022.1 0.527638 6 36 1 2.48207e-314 0 0 0 
-3.70497 9.86653 111.75 0.02 0.609364 5137.29 12646.1 0.525138 7 36 1 2.48207e-314 0 0 0 
-3.65017 13.1564 248.524 0.02 0.613569 5038.69 12318.3 0.521539 8 34 1 2.48207e-314 0 0 0 
-3.607 15.1818 303.97 0.02 0.616362 4980.84 12121.7 0.519175 9 33 1 2.48207e-314 0 0 0 
-3.57713 15.6347 285.847 0.02 0.618384 4944.62 11994.2 0.517477 10 32 1 2.48207e-314 0 0 0 
-3.55068 15.6987 245.786 0.02 0.620661 4917.13 11883.8 0.515579 11 31 1 2.48207e-314 0 0 0 
-3.52347 15.9104 213.34 0.02 0.623426 4894.65 11777 0.513293 12 31 1 2.48207e-314 0 0 0 
-3.49464 16.342 196.819 0.02 0.626585 4875.97 11672.9 0.510705 13 30 1 2.48207e-314 0 0 0 
-3.4645 16.9744 202.321 0.02 0.629901 4860.43 11574.5 0.508016 14 31 1 2.48207e-314 0 0 0 
-3.43383 17.7379 221.661 0.02 0.633102 4847.57 11485.5 0.505448 15 32 1 2.48207e-314 0 0 0 
-3.40246 18.6433 252.341 0.02 0.636008 4836.55 11407 0.503138 16 33 1 2.48207e-314 0 0 0 
-3.37028 19.5289 274.255 0.02 0.638518 4827.2 11340.2 0.50116 17 34 1 2.48207e-314 0 0 0 
-3.33697 20.4535 285.432 0.02 0.640535 4819.5 11286.5 0.499583 18 33 1 2.48207e-314 0 0 0 
-3.30391 21.3287 285.427 0.02 0.641964 4813.56 11247.4 0.49847 19 31 1 2.48207e-314 0 0 0 
-3.27198 22.0413 275.412 0.02 0.643001 4809.55 11219.9 0.497666 20 31 1 2.48207e-314 0 0 0 
-3.24102 22.6408 262.412 0.02 0.643848 4807.38 11200.1 0.497012 21 31 1 2.48207e-314 0 0 0 
-3.21077 23.1781 251.804 0.02 0.644611 4806.71 11185.3 0.496423 22 32 1 2.48207e-314 0 0 0 
-3.18092 23.6946 244.478 0.02 0.64533 4807.01 11173.5 0.49587 23 32 1 2.48207e-314 0 0 0 
-3.15116 24.2244 242.763 0.02 0.646011 4807.78 11163.5 0.495347 24 31 1 2.48207e-314 0 0 0 
-3.12089 24.8073 241.241 0.02 0.646616 4808.41 11154.6 0.494884 25 32 1 2.48207e-314 0 0 0 
-3.08998 25.4582 241.259 0.02 0.647082 4808.46 11146.6 0.494528 26 32 1 2.48207e-314 0 0 0 
-3.05866 26.1529 243.655 0.02 0.647344 4807.65 11140.2 0.494327 27 32 1 2.48207e-314 0 0 0 
-3.02725 26.844 244.996 0.02 0.647392 4806.05 11135.7 0.494291 28 31 1 2.48207e-314 0 0 0 
-2.99597 27.4993 242.595 0.02 0.647266 4803.95 11133 0.494387 29 31 1 2.48207e-314 0 0 0 
-2.96491 28.1119 236.834 0.02 0.647026 4801.61 11131.7 0.494571 30 31 1 2.48207e-314 0 0 0 
-2.93404 28.6908 229.143 0.02 0.646725 4799.18 11131.3 0.494801 31 31 1 2.48207e-314 0 0 0 
-2.90329 29.2511 221.184 0.02 0.646398 4796.68 11131.1 0.495051 32 31 1 2.48207e-314 0 0 0 
-2.87256 29.8093 214.595 0.02 0.646059 4794.07 11130.9 0.495311 33 31 1 2.48207e-314 0 0 0 
-2.84179 30.3745 209.78 0.02 0.645711 4791.25 11130.3 0.495578 34 32 1 2.48207e-314 0 0 0 
-2.81092 30.9507 206.455 0.02 0.645346 4788.13 11129.3 0.495858 35 32 1 2.48207e-314 0 0 0 
-2.77995 31.5357 203.999 0.02 0.644957 4784.65 11128 0.496157 36 32 1 2.48207e-314 0 0 0 
-2.74889 32.1236 201.564 0.02 0.644539 4780.83 11126.3 0.496479 37 32 1 2.48207e-314 0 0 0 
-2.71778 32.7089 198.602 0.02 0.644092 4776.69 11124.4 0.496823 38 32 1 2.48207e-314 0 0 0 
-2.68663 33.2875 194.928 0.02 0.643624 4772.32 11122.3 0.497185 39 32 1 2.48207e-314 0 0 0 
-2.65548 33.8569 190.66 0.02 0.64314 4767.8 11120.1 0.497559 40 32 1 2.48207e-314 0 0 0 
-2.62435 34.4154 185.981 0.02 0.642651 4763.2 11117.8 0.497937 41 32 1 2.48207e-314 0 0 0 
-2.59323 34.9643 181.164 0.02 0.642165 4758.56 11115.4 0.498314 42 32 1 2.48207e-314 0 0 0 
-2.5621 35.5064 176.561 0.02 0.641686 4753.91 11112.8 0.498686 43 32 1 2.48207e-314 0 0 0 
-2.53096 36.0446 172.415 0.02 0.641215 4749.23 11110 0.499052 44 32 1 2.48207e-314 0 0 0 
-2.49979 36.5807 168.794 0.02 0.640752 4744.52 11107.1 0.499413 45 32 1 2.48207e-314 0 0 0 
-2.46858 37.1149 165.603 0.02 0.640293 4739.77 11103.9 0.499771 46 32 1 2.48207e-314 0 0 0 
-2.43732 37.6465 162.658 0.02 0.639836 4734.98 11100.6 0.500128 47 32 1 2.48207e-314 0 0 0 
-2.40604 38.1737 159.754 0.02 0.639379 4730.15 11097.2 0.500486 48 32 1 2.48207e-314 0 0 0 
-2.37473 38.695 156.731 0.02 0.638922 4725.31 11093.7 0.500843 49 32 1 2.48207e-314 0 0 0 
-2.3434 39.2092 153.536 0.02 0.638467 4720.46 11090.3 0.501201 50 32 1 2.48207e-314 0 0 0 
-2.31205 39.7159 150.215 0.02 0.638013 4715.64 11086.8 0.501557 51 32 1 2.48207e-314 0 0 0 
-2.28069 40.2153 146.874 0.02 0.637563 4710.85 11083.3 0.501911 52 32 1 2.48207e-314 0 0 0 
-2.24931 40.7077 143.627 0.02 0.637118 4706.09 11079.9 0.502262 53 32 1 2.48207e-314 0 0 0 
-2.21792 41.1936 140.555 0.02 0.636677 4701.37 11076.5 0.50261 54 32 1 2.48207e-314 0 0 0 
-2.1865 41.6733 137.684 0.02 0.636239 4696.69 11073 0.502955 55 32 1 2.48207e-314 0 0 0 
-2.15505 42.1469 135.002 0.02 0.635805 4692.03 11069.6 0.503299 56 32 1 2.48207e-314 0 0 0 
-2.12359 42.6143 132.47 0.02 0.635373 4687.41 11066.2 0.503641 57 32 1 2.48207e-314 0 0 0 
-2.0921 43.0751 130.038 0.02 0.634943 4682.8 11062.8 0.503982 58 32 1 2.48207e-314 0 0 0 
-2.06059 43.5289 127.664 0.02 0.634514 4678.23 11059.5 0.504323 59 32 1 2.48207e-314 0 0 0 
-2.02905 43.9755 125.325 0.02 0.634087 4673.68 11056.2 0.504663 60 32 1 2.48207e-314 0 0 0 
-1.9975 44.4147 123.017 0.02 0.63366 4669.16 11052.9 0.505003 61 32 1 2.48207e-314 0 0 0 
-1.96592 44.8461 120.756 0.02 0.633235 4664.68 11049.7 0.505342 62 32 1 2.48207e-314 0 0 0 
-1.93433 45.27 118.563 0.02 0.632811 4660.23 11046.5 0.50568 63 32 1 2.48207e-314 0 0 0 
-1.90271 45.6862 116.461 0.02 0.632389 4655.81 11043.4 0.506017 64 32 1 2.48207e-314 0 0 0 
-1.87107 46.0947 114.467 0.02 0.631969 4651.42 11040.4 0.506354 65 32 1 2.48207e-314 0 0 0 
-1.83942 46.4957 112.585 0.02 0.631551 4647.06 11037.3 0.506689 66 32 1 2.48207e-314 0 0 0 
-1.80774 46.8891 110.811 0.02 0.631133 4642.73 11034.3 0.507024 67 32 1 2.48207e-314 0 0 0 
-1.77604 47.2748 109.136 0.02 0.630717 4638.43 11031.4 0.507359 68 32 1 2.48207e-314 0 0 0 
-1.74432 47.6527 107.546 0.02 0.630303 4634.16 11028.5 0.507693 69 32 1 2.48207e-314 0 0 0 
-1.71257 48.0227 106.031 0.02 0.629889 4629.92 11025.6 0.508026 70 32 1 2.48207e-314 0 0 0 
-1.68081 48.3849 104.582 0.02 0.629477 4625.7 11022.8 0.508359 71 32 1 2.48207e-314 0 0 0 
-1.64903 48.739 103.198 0.02 0.629066 4621.51 11020 0.508691 72 32 1 2.48207e-314 0 0 0 
-1.61722 49.0852 101.878 0.02 0.628656 4617.35 11017.2 0.509022 73 32 1 2.48207e-314 0 0 0 
-1.5854 49.4233 100.622 0.02 0.628248 4613.22 11014.5 0.509353 74 32 1 2.48207e-314 0 0 0 
-1.55355 49.7535 99.4322 0.02 0.627842 4609.12 11011.8 0.509682 75 32 1 2.48207e-314 0 0 0 
-1.52168 50.0757 98.3066 0.02 0.627438 4605.04 11009.2 0.510011 76 32 1 2.48207e-314 0 0 0 
-1.4898 50.3899 97.2419 0.02 0.627035 4601 11006.6 0.510338 77 32 1 2.48207e-314 0 0 0 
-1.45789 50.6961 96.2326 0.02 0.626634 4596.98 11004 0.510665 78 32 1 2.48207e-314 0 0 0 
-1.42596 50.9945 95.2716 0.02 0.626235 4593 11001.5 0.51099 79 32 1 2.48207e-314 0 0 0 
-1.39401 51.2849 94.3512 0.02 0.625838 4589.05 10999 0.511314 80 32 1 2.48207e-314 0 0 0 
-1.36204 51.5674 93.4634 0.02 0.625444 4585.12 10996.5 0.511637 81 32 1 2.48207e-314 0 0 0 
-1.33006 51.8421 92.601 0.02 0.625052 4581.23 10994.1 0.511958 82 32 1 2.48207e-314 0 0 0 
-1.29805 52.109 91.7572 0.02 0.624662 4577.38 10991.7 0.512277 83 32 1 2.48207e-314 0 0 0 
-1.26602 52.3682 90.9256 0.02 0.624275 4573.56 10989.3 0.512595 84 32 1 2.48207e-314 0 0 0 
-1.23397 52.6196 90.1005 0.02 0.62389 4569.77 10987 0.512911 85 32 1 2.48207e-314 0 0 0 
-1.2019 52.8634 89.276 0.02 0.623509 4566.02 10984.7 0.513225 86 32 1 2.48207e-314 0 0 0 
-1.16981 53.0996 88.4463 0.02 0.62313 4562.31 10982.4 0.513536 87 32 1 2.48207e-314 0 0 0 
-1.13771 53.3284 87.6052 0.02 0.622755 4558.64 10980.2 0.513846 88 32 1 2.48207e-314 0 0 0 
-1.10558 53.5497 86.7465 0.02 0.622383 4555.01 10978 0.514152 89 32 1 2.48207e-314 0 0 0 
-1.07343 53.7637 85.8637 0.02 0.622015 4551.43 10975.9 0.514457 90 32 1 2.48207e-314 0 0 0 
-1.04127 53.9705 84.9506 0.02 0.621651 4547.89 10973.7 0.514758 91 32 1 2.48207e-314 0 0 0 
-1.00908 54.1701 84.0011 0.02 0.621291 4544.39 10971.7 0.515057 92 32 1 2.48207e-314 0 0 0 
-0.97688 54.3627 83.0097 0.02 0.620934 4540.95 10969.6 0.515352 93 32 1 2.48207e-314 0 0 0 
-0.944659 54.5483 81.9715 0.02 0.620582 4537.55 10967.7 0.515645 94 32 1 2.48207e-314 0 0 0 
-0.912419 54.7271 80.8823 0.02 0.620235 4534.21 10965.7 0.515933 95 32 1 2.48207e-314 0 0 0 
-0.880162 54.8992 79.7387 0.02 0.619892 4530.92 10963.8 0.516219 96 32 1 2.48207e-314 0 0 0 
-0.847886 55.0647 78.538 0.02 0.619555 4527.69 10962 0.5165 97 32 1 2.48207e-314 0 0 0 
-0.815593 55.2237 77.2782 0.02 0.619222 4524.52 10960.2 0.516778 98 32 1 2.48207e-314 0 0 0 
-0.783283 55.3764 75.9579 0.02 0.618895 4521.4 10958.4 0.517051 99 32 1 2.48207e-314 0 0 0 
-0.750956 55.5228 74.5762 0.02 0.618573 4518.35 10956.7 0.51732 100 32 1 2.48207e-314 0 0 0 
-0.718612 55.6631 73.1324 0.02 0.618256 4515.37 10955.1 0.517585 101 32 1 2.48207e-314 0 0 0 
-0.686251 55.7975 71.6265 0.02 0.617946 4512.44 10953.5 0.517844 102 32 1 2.48207e-314 0 0 0 
-0.653874 55.9261 70.0587 0.02 0.617642 4509.59 10952 0.5181 103 32 1 2.48207e-314 0 0 0 
-0.621482 56.0489 68.4297 0.02 0.617344 4506.81 10950.5 0.51835 104 32 1 2.48207e-314 0 0 0 
-0.589074 56.1662 66.741 0.02 0.617052 4504.1 10949.1 0.518595 105 32 1 2.48207e-314 0 0 0 
-0.55665 56.2781 64.9951 0.02 0.616768 4501.46 10947.7 0.518834 106 32 1 2.48207e-314 0 0 0 
-0.524211 56.3847 63.1952 0.02 0.616489 4498.89 10946.4 0.519068 107 32 1 2.48207e-314 0 0 0 
-0.491758 56.4863 61.3454 0.02 0.616218 4496.4 10945.1 0.519296 108 32 1 2.48207e-314 0 0 0 
-0.459291 56.5828 59.4505 0.02 0.615955 4493.99 10944 0.519519 109 32 1 2.48207e-314 0 0 0 
-0.42681 56.6746 57.5156 0.02 0.615698 4491.65 10942.8 0.519735 110 32 1 2.48207e-314 0 0 0 
-0.394316 56.7617 55.5461 0.02 0.615449 4489.39 10941.7 0.519946 111 32 1 2.48207e-314 0 0 0 
-0.361808 56.8442 53.5472 0.02 0.615207 4487.21 10940.7 0.52015 112 32 1 2.48207e-314 0 0 0 
-0.329288 56.9224 51.5237 0.02 0.614974 4485.1 10939.7 0.520347 113 32 1 2.48207e-314 0 0 0 
-0.296756 56.9962 49.4801 0.02 0.614748 4483.08 10938.8 0.520538 114 32 1 2.48207e-314 0 0 0 
-0.264213 57.066 47.421 0.02 0.614531 4481.13 10937.9 0.520723 115 32 1 2.48207e-314 0 0 0 
-0.231657 57.1319 45.3511 0.02 0.614321 4479.25 10937.1 0.5209 116 32 1 2.48207e-314 0 0 0 
-0.19909 57.1939 43.2756 0.02 0.61412 4477.45 10936.3 0.521071 117 32 1 2.48207e-314 0 0 0 
-0.166513 57.2523 41.2001 0.02 0.613928 4475.72 10935.5 0.521234 118 32 1 2.48207e-314 0 0 0 
-0.133926 57.3072 39.1312 0.02 0.613743 4474.06 10934.7 0.521391 119 32 1 2.48207e-314 0 0 0 
-0.101329 57.3587 37.0754 0.02 0.613568 4472.47 10933.9 0.52154 120 32 1 2.48207e-314 0 0 0 
-0.0687228 57.407 35.0399 0.02 0.6134 4470.94 10933.2 0.521682 121 32 1 2.48207e-314 0 0 0 
-0.0361087 57.4522 33.0308 0.02 0.613241 4469.48 10932.4 0.521818 122 32 1 2.48207e-314 0 0 0 
-0.00348674 57.4944 31.0538 0.02 0.61309 4468.06 10931.7 0.521946 123 32 1 2.48207e-314 0 0 0 
0.0291427 57.5337 29.1134 0.02 0.612947 4466.7 10930.9 0.522068 124 32 1 2.48207e-314 0 0 0 
0.0617794 57.5702 27.2127 0.02 0.612812 4465.38 10930.1 0.522183 125 32 1 2.48207e-314 0 0 0 
0.0944233 57.6041 25.3543 0.02 0.612685 4464.11 10929.2 0.522292 126 32 1 2.48207e-314 0 0 0 
0.127074 57.6356 23.5405 0.02 0.612564 4462.87 10928.3 0.522394 127 32 1 2.48207e-314 0 0 0 
0.159732 57.6647 21.7739 0.02 0.61245 4461.65 10927.4 0.522492 128 32 1 2.48207e-314 0 0 0 
0.192395 57.6916 20.0577 0.02 0.612341 4460.45 10926.4 0.522584 129 32 1 2.48207e-314 0 0 0 
0.225064 57.7165 18.3958 0.02 0.612237 4459.27 10925.4 0.522673 130 32 1 2.48207e-314 0 0 0 
0.257737 57.7394 16.7928 0.02 0.612138 4458.1 10924.3 0.522758 131 32 1 2.48207e-314 0 0 0 
0.290414 57.7605 15.2538 0.02 0.61204 4456.93 10923.1 0.522842 132 32 1 2.48207e-314 0 0 0 
0.323093 57.7798 13.7839 0.02 0.611944 4455.75 10922 0.522924 133 32 1 2.48207e-314 0 0 0 
0.355777 57.7974 12.3879 0.02 0.611847 4454.55 10920.8 0.523006 134 32 1 2.48207e-314 0 0 0 
0.388464 57.8135 11.0692 0.02 0.611748 4453.34 10919.5 0.523091 135 32 1 2.48207e-314 0 0 0 
0.421156 57.8281 9.82862 0.02 0.611645 4452.11 10918.4 0.523179 136 32 1 2.48207e-314 0 0 0 
0.453855 57.8416 8.66423 0.02 0.611536 4450.85 10917.2 0.523273 137 32 1 2.48207e-314 0 0 0 
0.48656 57.8539 7.5721 0.02 0.611417 4449.56 10916.2 0.523374 138 32 1 2.48207e-314 0 0 0 
0.519271 57.8652 6.54799 0.02 0.611286 4448.25 10915.3 0.523486 139 32 1 2.48207e-314 0 0 0 
0.551987 57.8757 5.58953 0.02 0.611141 4446.91 10914.6 0.523611 140 32 1 2.48207e-314 0 0 0 
0.584708 57.8853 4.69727 0.02 0.610977 4445.55 10914.2 0.523751 141 32 1 2.48207e-314 0 0 0 
0.617434 57.8944 3.87436 0.02 0.610792 4444.18 10914.1 0.52391 142 32 1 2.48207e-314 0 0 0 
0.650165 57.9029 3.12483 0.02 0.610582 4442.81 10914.5 0.52409 143 32 1 2.48207e-314 0 0 0 
0.682904 57.9111 2.45186 0.02 0.610344 4441.45 10915.5 0.524295 144 32 1 2.48207e-314 0 0 0 
0.715656 57.919 1.85744 0.02 0.610073 4440.13 10917 0.524527 145 32 1 2.48207e-314 0 0 0 
0.748423 57.9268 1.34209 0.02 0.609767 4438.86 10919.4 0.524791 146 32 1 2.48207e-314 0 0 0 
0.781209 57.9346 0.904234 0.02 0.609421 4437.68 10922.7 0.525088 147 32 1 2.48207e-314 0 0 0 
0.814017 57.9426 0.538348 0.02 0.609033 4436.61 10927 0.525423 148 32 1 2.48207e-314 0 0 0 
0.846849 57.951 0.231263 0.02 0.608599 4435.68 10932.5 0.525798 149 32 1 2.48207e-314 0 0 0 
0.879702 57.9596 -0.0388236 0.02 0.608116 4434.95 10939.4 0.526215 150 32 1 2.48207e-314 0 0 0 
0.912576 57.9684 -0.296592 0.02 0.607584 4434.46 10947.8 0.526676 151 32 1 2.48207e-314 0 0 0 
0.945471 57.9774 -0.556219 0.02 0.607001 4434.25 10957.8 0.527182 152 32 1 2.48207e-314 0 0 0 
0.978389 57.9867 -0.813934 0.02 0.606367 4434.39 10969.6 0.527733 153 32 1 2.48207e-314 0 0 0 
1.01134 57.9965 -1.05179 0.02 0.605684 4434.92 10983.3 0.528328 154 32 1 2.48207e-314 0 0 0 
1.04433 58.0075 -1.24374 0.02 0.604953 4435.91 10999 0.528966 155 32 1 2.48207e-314 0 0 0 
1.07739 58.0199 -1.37967 0.02 0.604177 4437.41 11016.8 0.529646 156 32 1 2.48207e-314 0 0 0 
1.1105 58.0337 -1.47841 0.02 0.60336 4439.49 11036.9 0.530364 157 32 1 2.48207e-314 0 0 0 
1.14369 58.0482 -1.57803 0.02 0.602507 4442.2 11059.3 0.531114 158 32 1 2.48207e-314 0 0 0 
1.17692 58.0623 -1.73718 0.02 0.601629 4445.61 11083.9 0.531889 159 32 1 2.48207e-314 0 0 0 
1.21018 58.0753 -1.95662 0.02 0.600738 4449.77 11110.8 0.532678 160 32 1 2.48207e-314 0 0 0 
1.24347 58.0872 -2.21929 0.02 0.599849 4454.73 11139.6 0.533467 161 32 1 2.48207e-314 0 0 0 
1.2768 58.099 -2.50855 0.02 0.598978 4460.52 11170.3 0.534243 162 32 1 2.48207e-314 0 0 0 
1.31017 58.1115 -2.85483 0.02 0.598143 4467.19 11202.6 0.534989 163 32 1 2.48207e-314 0 0 0 
1.34363 58.125 -3.29232 0.02 0.597362 4474.74 11236.3 0.535689 164 32 1 2.48207e-314 0 0 0 
1.37719 58.139 -3.83705 0.02 0.596658 4483.2 11270.8 0.536321 165 33 1 2.48207e-314 0 0 0 
1.41084 58.1522 -4.45864 0.02 0.596059 4492.57 11305.7 0.53686 166 33 1 2.48207e-314 0 0 0 
1.44455 58.1641 -4.98933 0.02 0.595595 4502.82 11340.3 0.537278 167 33 1 2.48207e-314 0 0 0 
1.47831 58.1742 -5.44051 0.02 0.595301 4513.9 11373.8 0.537543 168 33 1 2.48207e-314 0 0 0 
1.51207 58.1819 -5.71203 0.02 0.595209 4525.72 11405.4 0.537627 169 33 1 2.48207e-314 0 0 0 
1.54582 58.1879 -6.03457 0.02 0.595353 4538.16 11434 0.537496 170 33 1 2.48207e-314 0 0 0 
1.57953 58.1886 -6.67625 0.02 0.595773 4551.11 11458.5 0.537117 171 33 1 2.48207e-314 0 0 0 
1.61317 58.1798 -7.64733 0.02 0.596514 4564.41 11477.7 0.53645 172 33 1 2.48207e-314 0 0 0 
1.64669 58.1628 -8.52339 0.02 0.597629 4577.88 11490.1 0.535449 173 32 1 2.48207e-314 0 0 0 
1.68018 58.1474 -8.90376 0.02 0.599176 4591.34 11494.1 0.534067 174 33 1 2.48207e-314 0 0 0 
1.71382 58.1409 -9.00174 0.02 0.601218 4604.62 11488.2 0.532252 175 33 1 2.48207e-314 0 0 0 
1.74761 58.1391 -8.94982 0.02 0.603818 4617.5 11470.7 0.529961 176 33 1 2.48207e-314 0 0 0 
1.78144 58.1364 -9.05402 0.02 0.607032 4629.67 11440.1 0.527155 177 33 1 2.48207e-314 0 0 0 
1.81513 58.1226 -9.56465 0.02 0.610911 4640.8 11394.8 0.523808 178 33 1 2.48207e-314 0 0 0 
1.8483 58.0825 -10.3598 0.02 0.615484 4650.43 11333.6 0.519916 179 34 1 2.48207e-314 0 0 0 
1.88066 58.0168 -10.6284 0.02 0.62077 4658.12 11255.7 0.515489 180 34 1 2.48207e-314 0 0 0 
1.91222 57.9444 -9.7173 0.02 0.626803 4663.61 11160.5 0.510527 181 34 1 2.48207e-314 0 0 0 
1.94366 57.9 -8.20687 0.02 0.633764 4667.02 11046 0.50492 182 34 1 2.48207e-314 0 0 0 
1.97575 57.8827 -6.96802 0.02 0.641935 4668.23 10908.2 0.498493 183 35 1 2.48207e-314 0 0 0 
2.00825 57.8707 -6.11212 0.02 0.651442 4666.59 10745.2 0.491218 184 34 1 2.48207e-314 0 0 0 
2.04062 57.8453 -5.73725 0.02 0.662312 4661.51 10557.4 0.483156 185 35 1 2.48207e-314 0 0 0 
2.07228 57.7956 -5.68828 0.02 0.674518 4652.57 10346.4 0.474413 186 35 1 2.48207e-314 0 0 0 
2.10245 57.7016 -5.71621 0.02 0.687807 4639.36 10117.7 0.465247 187 35 1 2.48207e-314 0 0 0 
2.13015 57.5992 -3.23264 0.02 0.701598 4622.87 9883.59 0.456101 188 36 1 2.48207e-314 0 0 0 
2.15767 57.5356 -1.35782 0.02 0.71696 4603.64 9631.61 0.446329 189 36 1 2.48207e-314 0 0 0 
2.18537 57.4895 0.599859 0.02 0.73428 4580.97 9358.1 0.435801 190 36 1 2.48207e-314 0 0 0 
2.21397 57.4775 2.27131 0.02 0.754358 4554.61 9056.62 0.424202 191 36 1 2.48207e-314 0 0 0 
2.24168 57.4535 4.0378 0.02 0.7762 4524.67 8743.9 0.412265 192 36 1 2.48207e-314 0 0 0 
2.27044 57.4638 4.69724 0.02 0.801862 4490.47 8400.09 0.399071 193 37 1 2.48207e-314 0 0 0 
2.29722 57.3679 4.91546 0.02 0.829012 4450.47 8052.62 0.386002 194 38 1 2.48207e-314 0 0 0 
2.32015 57.2686 7.02959 0.02 0.855128 4410.91 7737.29 0.374213 195 37 1 2.48207e-314 0 0 0 
2.34239 57.2072 8.37448 0.02 0.883302 4370.47 7421.82 0.362277 196 37 1 2.48207e-314 0 0 0 
2.36474 57.1893 8.47098 0.02 0.914769 4328.88 7098.32 0.349815 197 38 1 2.48207e-314 0 0 0 
2.38642 57.2165 8.64998 0.02 0.948661 4288.06 6780.18 0.337317 198 38 1 2.48207e-314 0 0 0 
2.40536 57.2574 10.1055 0.02 0.98136 4251.49 6498.36 0.326078 199 38 1 2.48207e-314 0 0 0 
2.43659 57.1594 12.9466 0.02 1.04293 4181.17 6013.58 0.306827 200 39 1 2.48206e-314 0 0 0 
2.4534 57.1705 12.5967 0.02 1.08076 4143.22 5750.45 0.296089 201 39 1 2.48206e-314 0 0 0 
2.47097 57.1858 11.3359 0.02 1.12432 4101.97 5472.58 0.284616 202 38 1 2.48206e-314 0 0 0 
2.48805 57.1871 10.2834 0.02 1.17128 4059.72 5199.08 0.273206 203 38 1 2.48206e-314 0 0 0 
2.50405 57.1708 10.4397 0.02 1.22 4018.12 4940.28 0.262294 204 38 1 2.48206e-314 0 0 0 
2.51996 57.1428 11.2673 0.02 1.27367 3975.75 4682.22 0.251242 205 39 1 2.48206e-314 0 0 0 
2.53913 57.1703 9.7712 0.02 1.34627 3929.32 4378.01 0.237694 206 38 1 2.48206e-314 0 0 0 
2.55606 57.2445 9.87774 0.02 1.41805 3891.13 4115.97 0.225661 207 38 1 2.48206e-314 0 0 0 
2.57028 57.2752 9.50233 0.02 1.48501 3857.11 3896.03 0.215487 208 38 1 2.48206e-314 0 0 0 
2.58397 57.3102 8.47684 0.02 1.55653 3824.98 3686.05 0.205585 209 38 1 2.48206e-314 0 0 0 
2.59624 57.3255 7.05567 0.02 1.62739 3795.73 3498.58 0.196633 210 37 1 2.48206e-314 0 0 0 
2.60738 57.3233 6.67581 0.02 1.69811 3768.58 3328.91 0.188445 211 37 1 2.48206e-314 0 0 0 
2.61957 57.3371 4.3995 0.02 1.78342 3741.74 3147.09 0.17943 212 37 1 2.48206e-314 0 0 0 
2.63207 57.3991 3.02389 0.02 1.87982 3719.35 2967.83 0.170229 213 36 1 2.48206e-314 0 0 0 
2.64375 57.4638 2.34419 0.02 1.97855 3700.98 2805.82 0.161735 214 36 1 2.48206e-314 0 0 0 
