# Time [s]: 0.0461646
# Columns: pos [m], vel [m/s], acc [m/s^2], mass [kg], dens [kg/m^3], pres [Pa], ene [J/kg], sml [m], id, neighbor, alpha, gradh, ...additional?
# Additional arrays: grad_velocity_0(vector) grad_pressure(vector) grad_density(vector) 
-3.83382 9.73118 66.6011 0.02 0.584637 5602.24 14373.8 0.547349 0 38 1 2.48207e-314 0 0 0 
-3.82893 9.24295 109.617 0.02 0.584004 5565.73 14295.6 0.547942 1 38 1 2.48207e-314 0 0 0 
-3.82111 8.62865 142.464 0.02 0.583095 5507.04 14166.9 0.548795 2 37 1 2.48207e-314 0 0 0 
-3.80913 7.98445 154.725 0.02 0.581934 5420.5 13972.1 0.54989 3 38 1 2.48207e-314 0 0 0 
-3.79234 7.44746 130.864 0.02 0.580752 5308.36 13711 0.55101 4 37 1 2.48207e-314 0 0 0 
-3.76942 7.23154 90.8807 0.02 0.579949 5176.01 13387.7 0.551773 5 37 1 2.48207e-314 0 0 0 
-3.73739 7.78012 59.8947 0.02 0.580312 5032.23 13007.6 0.551428 6 36 1 2.48207e-314 0 0 0 
-3.68926 10.0335 101.186 0.02 0.583274 4892.06 12581.1 0.548627 7 36 1 2.48207e-314 0 0 0 
-3.6291 13.5339 230.128 0.02 0.588113 4787.47 12210.8 0.544113 8 34 1 2.48207e-314 0 0 0 
-3.58268 15.6382 275.09 0.02 0.591463 4729.2 11993.8 0.541031 9 33 1 2.48207e-314 0 0 0 
-3.55211 16.0602 253.454 0.02 0.593804 4693.8 11857.1 0.538898 10 33 1 2.48207e-314 0 0 0 
-3.52561 16.0622 214.926 0.02 0.596325 4666.65 11738.7 0.53662 11 31 1 2.48207e-314 0 0 0 
-3.49811 16.2203 180.665 0.02 0.599364 4643.93 11622.3 0.533899 12 31 1 2.48207e-314 0 0 0 
-3.46862 16.6257 163.995 0.02 0.60286 4624.68 11507 0.530803 13 30 1 2.48207e-314 0 0 0 
-3.43748 17.2671 169.742 0.02 0.606573 4608.52 11396.6 0.527554 14 31 1 2.48207e-314 0 0 0 
-3.40558 18.0599 187.448 0.02 0.610193 4595.2 11296.3 0.524425 15 32 1 2.48207e-314 0 0 0 
-3.37274 19.0118 215.67 0.02 0.613506 4583.93 11207.7 0.521592 16 33 1 2.48207e-314 0 0 0 
-3.33914 19.9307 235.914 0.02 0.61637 4574.61 11133 0.519168 17 34 1 2.48207e-314 0 0 0 
-3.30435 20.8724 246.533 0.02 0.61869 4567.28 11073.4 0.517222 18 33 1 2.48207e-314 0 0 0 
-3.26991 21.7422 239.686 0.02 0.620374 4562.1 11030.9 0.515818 19 31 1 2.48207e-314 0 0 0 
-3.23687 22.4353 225.017 0.02 0.621651 4559.18 11001.1 0.514758 20 31 1 2.48207e-314 0 0 0 
-3.20499 23.0117 208.91 0.02 0.622744 4558.32 10979.8 0.513855 21 31 1 2.48207e-314 0 0 0 
-3.1739 23.5317 197.657 0.02 0.62376 4559.08 10963.7 0.513018 22 31 1 2.48207e-314 0 0 0 
-3.14325 24.0356 189.099 0.02 0.62473 4560.86 10951 0.512221 23 32 1 2.48207e-314 0 0 0 
-3.11265 24.5622 186.776 0.02 0.625656 4563.14 10940.2 0.511463 24 32 1 2.48207e-314 0 0 0 
-3.08146 25.1412 183.56 0.02 0.626496 4565.34 10930.8 0.510777 25 32 1 2.48207e-314 0 0 0 
-3.04953 25.7906 181.745 0.02 0.627184 4567.02 10922.8 0.510217 26 32 1 2.48207e-314 0 0 0 
-3.01712 26.4864 180.76 0.02 0.627646 4567.89 10916.9 0.509841 27 32 1 2.48207e-314 0 0 0 
-2.98461 27.1771 178.895 0.02 0.627871 4568.01 10913.2 0.509659 28 31 1 2.48207e-314 0 0 0 
-2.9523 27.8262 173.577 0.02 0.627906 4567.68 10911.8 0.50963 29 31 1 2.48207e-314 0 0 0 
-2.92028 28.4275 165.039 0.02 0.627822 4567.18 10912.1 0.509699 30 31 1 2.48207e-314 0 0 0 
-2.88851 28.9921 154.798 0.02 0.627675 4566.65 10913.4 0.509818 31 31 1 2.48207e-314 0 0 0 
-2.85689 29.538 144.569 0.02 0.627503 4566.1 10915.1 0.509958 32 31 1 2.48207e-314 0 0 0 
-2.82529 30.084 135.761 0.02 0.627323 4565.46 10916.7 0.510104 33 31 1 2.48207e-314 0 0 0 
-2.79363 30.6398 128.767 0.02 0.627133 4564.64 10918 0.510259 34 31 1 2.48207e-314 0 0 0 
-2.76186 31.209 123.173 0.02 0.626925 4563.53 10919 0.510428 35 32 1 2.48207e-314 0 0 0 
-2.72997 31.7882 118.368 0.02 0.626692 4562.07 10919.5 0.510618 36 32 1 2.48207e-314 0 0 0 
-2.69798 32.3702 113.457 0.02 0.626428 4560.27 10919.8 0.510833 37 32 1 2.48207e-314 0 0 0 
-2.66595 32.9488 107.931 0.02 0.626135 4558.19 10920 0.511072 38 32 1 2.48207e-314 0 0 0 
-2.6339 33.5195 101.649 0.02 0.625821 4555.9 10920 0.511328 39 32 1 2.48207e-314 0 0 0 
-2.60186 34.08 94.764 0.02 0.625495 4553.5 10919.9 0.511595 40 32 1 2.48207e-314 0 0 0 
-2.56985 34.6291 87.5938 0.02 0.625168 4551.06 10919.7 0.511863 41 32 1 2.48207e-314 0 0 0 
-2.53787 35.1685 80.4082 0.02 0.624848 4548.63 10919.5 0.512125 42 32 1 2.48207e-314 0 0 0 
-2.50589 35.7015 73.5303 0.02 0.62454 4546.21 10919.1 0.512377 43 32 1 2.48207e-314 0 0 0 
-2.47391 36.2313 67.1768 0.02 0.624245 4543.8 10918.4 0.512619 44 32 1 2.48207e-314 0 0 0 
-2.4419 36.7599 61.3839 0.02 0.623962 4541.39 10917.6 0.512852 45 32 1 2.48207e-314 0 0 0 
-2.40985 37.2874 56.0357 0.02 0.623687 4538.97 10916.6 0.513078 46 32 1 2.48207e-314 0 0 0 
-2.37776 37.8125 50.9369 0.02 0.623418 4536.54 10915.4 0.513299 47 32 1 2.48207e-314 0 0 0 
-2.34565 38.3334 45.8845 0.02 0.623152 4534.11 10914.2 0.513518 48 32 1 2.48207e-314 0 0 0 
-2.31352 38.8482 40.7305 0.02 0.62289 4531.7 10913 0.513734 49 32 1 2.48207e-314 0 0 0 
-2.28138 39.3557 35.4405 0.02 0.622633 4529.33 10911.8 0.513946 50 32 1 2.48207e-314 0 0 0 
-2.24924 39.8556 30.0847 0.02 0.622383 4527.02 10910.6 0.514153 51 32 1 2.48207e-314 0 0 0 
-2.2171 40.3481 24.7898 0.02 0.62214 4524.78 10909.5 0.514354 52 32 1 2.48207e-314 0 0 0 
-2.18495 40.8338 19.6795 0.02 0.621906 4522.62 10908.4 0.514548 53 32 1 2.48207e-314 0 0 0 
-2.15279 41.3135 14.8319 0.02 0.621679 4520.53 10907.3 0.514735 54 32 1 2.48207e-314 0 0 0 
-2.12062 41.7873 10.2677 0.02 0.621461 4518.51 10906.3 0.514916 55 32 1 2.48207e-314 0 0 0 
-2.08843 42.2554 5.96244 0.02 0.621249 4516.54 10905.3 0.515092 56 32 1 2.48207e-314 0 0 0 
-2.05623 42.7175 1.86842 0.02 0.621042 4514.64 10904.3 0.515263 57 32 1 2.48207e-314 0 0 0 
-2.02402 43.1733 -2.06664 0.02 0.620839 4512.79 10903.4 0.515431 58 32 1 2.48207e-314 0 0 0 
-1.99179 43.6223 -5.88284 0.02 0.620641 4511 10902.5 0.515596 59 32 1 2.48207e-314 0 0 0 
-1.95956 44.0641 -9.59766 0.02 0.620446 4509.26 10901.8 0.515758 60 32 1 2.48207e-314 0 0 0 
-1.92731 44.4985 -13.205 0.02 0.620254 4507.58 10901.1 0.515918 61 32 1 2.48207e-314 0 0 0 
-1.89506 44.9255 -16.6824 0.02 0.620066 4505.96 10900.4 0.516074 62 32 1 2.48207e-314 0 0 0 
-1.8628 45.345 -20.0008 0.02 0.619882 4504.39 10899.9 0.516227 63 32 1 2.48207e-314 0 0 0 
-1.83053 45.757 -23.1344 0.02 0.619702 4502.88 10899.4 0.516377 64 32 1 2.48207e-314 0 0 0 
-1.79825 46.1618 -26.0667 0.02 0.619525 4501.42 10899 0.516525 65 32 1 2.48207e-314 0 0 0 
-1.76596 46.5591 -28.7936 0.02 0.619351 4500.01 10898.6 0.51667 66 32 1 2.48207e-314 0 0 0 
-1.73366 46.9491 -31.3215 0.02 0.619179 4498.63 10898.3 0.516813 67 32 1 2.48207e-314 0 0 0 
-1.70136 47.3316 -33.6629 0.02 0.61901 4497.3 10898 0.516954 68 32 1 2.48207e-314 0 0 0 
-1.66904 47.7066 -35.8311 0.02 0.618843 4496.01 10897.8 0.517094 69 32 1 2.48207e-314 0 0 0 
-1.63672 48.0739 -37.8363 0.02 0.618678 4494.75 10897.7 0.517232 70 32 1 2.48207e-314 0 0 0 
-1.60439 48.4335 -39.6834 0.02 0.618515 4493.53 10897.6 0.517368 71 32 1 2.48207e-314 0 0 0 
-1.57205 48.7853 -41.3729 0.02 0.618353 4492.34 10897.5 0.517504 72 32 1 2.48207e-314 0 0 0 
-1.5397 49.1292 -42.902 0.02 0.618193 4491.18 10897.6 0.517638 73 32 1 2.48207e-314 0 0 0 
-1.50734 49.4654 -44.2676 0.02 0.618035 4490.04 10897.6 0.51777 74 32 1 2.48207e-314 0 0 0 
-1.47497 49.7937 -45.4676 0.02 0.617877 4488.94 10897.7 0.517902 75 32 1 2.48207e-314 0 0 0 
-1.4426 50.1142 -46.5028 0.02 0.617722 4487.86 10897.8 0.518033 76 32 1 2.48207e-314 0 0 0 
-1.41022 50.4269 -47.3765 0.02 0.617567 4486.8 10898 0.518163 77 32 1 2.48207e-314 0 0 0 
-1.37783 50.7319 -48.0945 0.02 0.617413 4485.76 10898.1 0.518291 78 32 1 2.48207e-314 0 0 0 
-1.34543 51.0291 -48.6641 0.02 0.617261 4484.74 10898.4 0.51842 79 32 1 2.48207e-314 0 0 0 
-1.31303 51.3185 -49.093 0.02 0.617109 4483.74 10898.6 0.518547 80 32 1 2.48207e-314 0 0 0 
-1.28061 51.6002 -49.3888 0.02 0.616958 4482.75 10898.9 0.518674 81 32 1 2.48207e-314 0 0 0 
-1.24819 51.8742 -49.5584 0.02 0.616808 4481.78 10899.2 0.5188 82 32 1 2.48207e-314 0 0 0 
-1.21576 52.1404 -49.6078 0.02 0.616659 4480.83 10899.5 0.518926 83 32 1 2.48207e-314 0 0 0 
-1.18332 52.399 -49.5429 0.02 0.61651 4479.89 10899.8 0.519051 84 32 1 2.48207e-314 0 0 0 
-1.15088 52.65 -49.369 0.02 0.616362 4478.95 10900.1 0.519175 85 32 1 2.48207e-314 0 0 0 
-1.11843 52.8934 -49.0919 0.02 0.616215 4478.04 10900.5 0.519299 86 32 1 2.48207e-314 0 0 0 
-1.08597 53.1294 -48.7177 0.02 0.616069 4477.13 10900.9 0.519423 87 32 1 2.48207e-314 0 0 0 
-1.0535 53.3579 -48.2531 0.02 0.615923 4476.23 10901.3 0.519546 88 32 1 2.48207e-314 0 0 0 
-1.02102 53.5791 -47.705 0.02 0.615778 4475.34 10901.7 0.519668 89 32 1 2.48207e-314 0 0 0 
-0.988538 53.7929 -47.0809 0.02 0.615634 4474.46 10902.1 0.51979 90 32 1 2.48207e-314 0 0 0 
-0.956047 53.9996 -46.3882 0.02 0.61549 4473.6 10902.5 0.519911 91 32 1 2.48207e-314 0 0 0 
-0.923548 54.1991 -45.6344 0.02 0.615347 4472.74 10903 0.520031 92 32 1 2.48207e-314 0 0 0 
-0.891042 54.3916 -44.8266 0.02 0.615206 4471.89 10903.4 0.520151 93 32 1 2.48207e-314 0 0 0 
-0.858528 54.5772 -43.9716 0.02 0.615065 4471.05 10903.8 0.52027 94 32 1 2.48207e-314 0 0 0 
-0.826007 54.7559 -43.0759 0.02 0.614925 4470.22 10904.3 0.520389 95 32 1 2.48207e-314 0 0 0 
-0.793478 54.9279 -42.1454 0.02 0.614786 4469.4 10904.8 0.520506 96 32 1 2.48207e-314 0 0 0 
-0.760942 55.0933 -41.1858 0.02 0.614648 4468.6 10905.3 0.520623 97 32 1 2.48207e-314 0 0 0 
-0.728399 55.2522 -40.2022 0.02 0.614512 4467.8 10905.7 0.520739 98 32 1 2.48207e-314 0 0 0 
-0.695849 55.4046 -39.1997 0.02 0.614377 4467.02 10906.2 0.520853 99 32 1 2.48207e-314 0 0 0 
-0.663291 55.5508 -38.1831 0.02 0.614243 4466.25 10906.7 0.520967 100 32 1 2.48207e-314 0 0 0 
-0.630726 55.6909 -37.1572 0.02 0.614111 4465.5 10907.2 0.521079 101 32 1 2.48207e-314 0 0 0 
-0.598154 55.825 -36.1266 0.02 0.61398 4464.76 10907.7 0.52119 102 32 1 2.48207e-314 0 0 0 
-0.565576 55.9531 -35.0961 0.02 0.613851 4464.04 10908.3 0.521299 103 32 1 2.48207e-314 0 0 0 
-0.53299 56.0756 -34.0699 0.02 0.613724 4463.33 10908.8 0.521407 104 32 1 2.48207e-314 0 0 0 
-0.500398 56.1924 -33.0522 0.02 0.613599 4462.64 10909.3 0.521513 105 32 1 2.48207e-314 0 0 0 
-0.467799 56.3037 -32.0463 0.02 0.613476 4461.97 10909.9 0.521617 106 32 1 2.48207e-314 0 0 0 
-0.435193 56.4098 -31.0551 0.02 0.613356 4461.31 10910.4 0.52172 107 32 1 2.48207e-314 0 0 0 
-0.402581 56.5107 -30.0809 0.02 0.613238 4460.68 10911 0.52182 108 32 1 2.48207e-314 0 0 0 
-0.369962 56.6065 -29.1253 0.02 0.613123 4460.07 10911.5 0.521918 109 32 1 2.48207e-314 0 0 0 
-0.337337 56.6975 -28.1897 0.02 0.61301 4459.47 10912.1 0.522014 110 32 1 2.48207e-314 0 0 0 
-0.304707 56.7838 -27.2751 0.02 0.612901 4458.9 10912.6 0.522108 111 32 1 2.48207e-314 0 0 0 
-0.272071 56.8655 -26.3828 0.02 0.612794 4458.35 10913.2 0.522198 112 32 1 2.48207e-314 0 0 0 
-0.239429 56.9428 -25.5144 0.02 0.612691 4457.82 10913.7 0.522286 113 32 1 2.48207e-314 0 0 0 
-0.206781 57.0158 -24.6714 0.02 0.612591 4457.31 10914.2 0.522372 114 32 1 2.48207e-314 0 0 0 
-0.174129 57.0846 -23.8557 0.02 0.612495 4456.82 10914.7 0.522454 115 32 1 2.48207e-314 0 0 0 
-0.141471 57.1494 -23.0686 0.02 0.612402 4456.35 10915.2 0.522532 116 32 1 2.48207e-314 0 0 0 
-0.108808 57.2104 -22.3113 0.02 0.612314 4455.89 10915.7 0.522608 117 32 1 2.48207e-314 0 0 0 
-0.0761397 57.2678 -21.5841 0.02 0.612229 4455.46 10916.1 0.52268 118 32 1 2.48207e-314 0 0 0 
-0.043467 57.3216 -20.8865 0.02 0.612149 4455.03 10916.5 0.522749 119 32 1 2.48207e-314 0 0 0 
-0.0107901 57.3721 -20.2174 0.02 0.612072 4454.62 10916.9 0.522814 120 32 1 2.48207e-314 0 0 0 
0.0218905 57.4193 -19.5751 0.02 0.612 4454.22 10917.2 0.522875 121 32 1 2.48207e-314 0 0 0 
0.0545745 57.4634 -18.9579 0.02 0.611933 4453.83 10917.4 0.522933 122 32 1 2.48207e-314 0 0 0 
0.0872616 57.5045 -18.3644 0.02 0.611869 4453.44 10917.6 0.522988 123 32 1 2.48207e-314 0 0 0 
0.119952 57.5427 -17.7937 0.02 0.611809 4453.05 10917.7 0.523039 124 32 1 2.48207e-314 0 0 0 
0.152645 57.5782 -17.2456 0.02 0.611753 4452.66 10917.8 0.523087 125 32 1 2.48207e-314 0 0 0 
0.185341 57.6111 -16.7203 0.02 0.611701 4452.25 10917.7 0.523132 126 32 1 2.48207e-314 0 0 0 
0.21804 57.6415 -16.2181 0.02 0.611652 4451.83 10917.6 0.523174 127 32 1 2.48207e-314 0 0 0 
0.250742 57.6696 -15.7388 0.02 0.611605 4451.39 10917.3 0.523214 128 32 1 2.48207e-314 0 0 0 
0.283447 57.6955 -15.2817 0.02 0.61156 4450.93 10917 0.523252 129 32 1 2.48207e-314 0 0 0 
0.316154 57.7195 -14.8449 0.02 0.611516 4450.44 10916.5 0.523289 130 32 1 2.48207e-314 0 0 0 
0.348862 57.7415 -14.4259 0.02 0.611473 4449.91 10916 0.523327 131 32 1 2.48207e-314 0 0 0 
0.38157 57.7616 -14.0209 0.02 0.611428 4449.33 10915.4 0.523365 132 32 1 2.48207e-314 0 0 0 
0.41428 57.7801 -13.6255 0.02 0.611381 4448.72 10914.8 0.523405 133 32 1 2.48207e-314 0 0 0 
0.44699 57.7969 -13.2347 0.02 0.611329 4448.05 10914 0.523449 134 32 1 2.48207e-314 0 0 0 
0.479701 57.8122 -12.8443 0.02 0.611272 4447.33 10913.3 0.523498 135 32 1 2.48207e-314 0 0 0 
0.512416 57.8262 -12.4523 0.02 0.611207 4446.56 10912.6 0.523554 136 32 1 2.48207e-314 0 0 0 
0.545135 57.839 -12.0593 0.02 0.611131 4445.72 10911.9 0.523619 137 32 1 2.48207e-314 0 0 0 
0.577858 57.8508 -11.6679 0.02 0.611043 4444.83 10911.3 0.523695 138 32 1 2.48207e-314 0 0 0 
0.610587 57.8616 -11.2813 0.02 0.610939 4443.89 10910.8 0.523784 139 32 1 2.48207e-314 0 0 0 
0.643319 57.8716 -10.9011 0.02 0.610817 4442.9 10910.5 0.523888 140 32 1 2.48207e-314 0 0 0 
0.676055 57.8809 -10.5264 0.02 0.610673 4441.87 10910.6 0.524012 141 32 1 2.48207e-314 0 0 0 
0.708794 57.8896 -10.1536 0.02 0.610504 4440.8 10911 0.524157 142 32 1 2.48207e-314 0 0 0 
0.741538 57.8978 -9.77821 0.02 0.610307 4439.73 10911.9 0.524327 143 32 1 2.48207e-314 0 0 0 
0.77429 57.9057 -9.39585 0.02 0.610078 4438.65 10913.3 0.524523 144 32 1 2.48207e-314 0 0 0 
0.807053 57.9135 -9.00234 0.02 0.609813 4437.6 10915.5 0.524751 145 32 1 2.48207e-314 0 0 0 
0.839832 57.9212 -8.59384 0.02 0.60951 4436.6 10918.4 0.525012 146 32 1 2.48207e-314 0 0 0 
0.872631 57.929 -8.16781 0.02 0.609164 4435.67 10922.4 0.52531 147 32 1 2.48207e-314 0 0 0 
0.905452 57.9371 -7.72576 0.02 0.608773 4434.86 10927.4 0.525648 148 32 1 2.48207e-314 0 0 0 
0.938296 57.9455 -7.278 0.02 0.608334 4434.19 10933.6 0.526027 149 32 1 2.48207e-314 0 0 0 
0.971163 57.9542 -6.84493 0.02 0.607844 4433.72 10941.3 0.526451 150 32 1 2.48207e-314 0 0 0 
1.00405 57.9632 -6.45097 0.02 0.607303 4433.49 10950.4 0.52692 151 32 1 2.48207e-314 0 0 0 
1.03696 57.9722 -6.10924 0.02 0.60671 4433.55 10961.3 0.527435 152 32 1 2.48207e-314 0 0 0 
1.06989 57.9815 -5.8143 0.02 0.606066 4433.95 10973.9 0.527995 153 32 1 2.48207e-314 0 0 0 
1.10286 57.9914 -5.54606 0.02 0.605373 4434.76 10988.5 0.5286 154 32 1 2.48207e-314 0 0 0 
1.13587 58.0024 -5.27674 0.02 0.604632 4436.03 11005.1 0.529247 155 32 1 2.48207e-314 0 0 0 
1.16894 58.0149 -4.99498 0.02 0.603847 4437.82 11023.9 0.529936 156 32 1 2.48207e-314 0 0 0 
1.20208 58.0289 -4.70813 0.02 0.603022 4440.18 11044.8 0.53066 157 32 1 2.48207e-314 0 0 0 
1.23529 58.0435 -4.4655 0.02 0.602165 4443.18 11068 0.531416 158 32 1 2.48207e-314 0 0 0 
1.26854 58.0576 -4.31104 0.02 0.601286 4446.87 11093.4 0.532193 159 32 1 2.48207e-314 0 0 0 
1.30183 58.0704 -4.2364 0.02 0.600397 4451.31 11120.9 0.532981 160 32 1 2.48207e-314 0 0 0 
1.33513 58.0822 -4.22029 0.02 0.599515 4456.53 11150.3 0.533764 161 32 1 2.48207e-314 0 0 0 
1.36848 58.0937 -4.25406 0.02 0.598657 4462.57 11181.5 0.53453 162 32 1 2.48207e-314 0 0 0 
1.40187 58.1058 -4.36846 0.02 0.59784 4469.46 11214 0.53526 163 32 1 2.48207e-314 0 0 0 
1.43535 58.1188 -4.5993 0.02 0.597083 4477.2 11247.7 0.535939 164 32 1 2.48207e-314 0 0 0 
1.46893 58.1321 -4.96959 0.02 0.596411 4485.82 11282 0.536543 165 33 1 2.48207e-314 0 0 0 
1.5026 58.1445 -5.41378 0.02 0.595851 4495.3 11316.5 0.537047 166 33 1 2.48207e-314 0 0 0 
1.53633 58.1557 -5.7776 0.02 0.595436 4505.62 11350.4 0.537422 167 33 1 2.48207e-314 0 0 0 
1.5701 58.1651 -6.07354 0.02 0.595197 4516.71 11382.9 0.537637 168 33 1 2.48207e-314 0 0 0 
1.60388 58.1726 -6.19756 0.02 0.595168 4528.48 11413.1 0.537663 169 33 1 2.48207e-314 0 0 0 
1.63763 58.1781 -6.40885 0.02 0.595384 4540.81 11440 0.537468 170 33 1 2.48207e-314 0 0 0 
1.67135 58.1779 -6.95086 0.02 0.595883 4553.57 11462.6 0.537019 171 33 1 2.48207e-314 0 0 0 
1.70497 58.1676 -7.79182 0.02 0.59671 4566.61 11479.5 0.536274 172 33 1 2.48207e-314 0 0 0 
1.73846 58.1494 -8.51425 0.02 0.597918 4579.74 11489.2 0.535191 173 32 1 2.48207e-314 0 0 0 
1.77193 58.1335 -8.75806 0.02 0.599564 4592.79 11490.3 0.533721 174 33 1 2.48207e-314 0 0 0 
1.80555 58.127 -8.73588 0.02 0.601714 4605.61 11481.2 0.531814 175 33 1 2.48207e-314 0 0 0 
1.83935 58.1253 -8.58442 0.02 0.604429 4617.95 11460.3 0.529426 176 33 1 2.48207e-314 0 0 0 
1.87317 58.1225 -8.627 0.02 0.607762 4629.54 11426 0.526522 177 33 1 2.48207e-314 0 0 0 
1.90684 58.1079 -9.08337 0.02 0.611764 4640.04 11377 0.523078 178 33 1 2.48207e-314 0 0 0 
1.93994 58.0666 -9.83271 0.02 0.616457 4648.99 11312.2 0.519096 179 34 1 2.48207e-314 0 0 0 
1.9722 58.0005 -10.0281 0.02 0.621853 4655.98 11230.9 0.514591 180 34 1 2.48207e-314 0 0 0 
2.00365 57.9296 -9.07356 0.02 0.627989 4660.79 11132.6 0.509563 181 34 1 2.48207e-314 0 0 0 
2.03502 57.8876 -7.5782 0.02 0.635058 4663.57 11015.3 0.503891 182 34 1 2.48207e-314 0 0 0 
2.06709 57.8723 -6.33436 0.02 0.643346 4664.18 10874.8 0.4974 183 35 1 2.48207e-314 0 0 0 
2.09957 57.8616 -5.4876 0.02 0.652972 4661.98 10709.5 0.490067 184 34 1 2.48207e-314 0 0 0 
2.13189 57.8368 -5.09914 0.02 0.66395 4656.42 10519.8 0.481964 185 35 1 2.48207e-314 0 0 0 
2.16348 57.7871 -5.05186 0.02 0.676242 4647.07 10307.9 0.473203 186 35 1 2.48207e-314 0 0 0 
2.1935 57.6931 -5.08934 0.02 0.689567 4633.62 10079.4 0.464059 187 35 1 2.48207e-314 0 0 0 
2.22104 57.5945 -2.83266 0.02 0.703361 4617.14 9846.61 0.454959 188 36 1 2.48207e-314 0 0 0 
2.24846 57.5337 -1.109 0.02 0.718731 4598.04 9596.19 0.445229 189 36 1 2.48207e-314 0 0 0 
2.27609 57.4906 0.782161 0.02 0.736053 4575.64 9324.7 0.434751 190 36 1 2.48207e-314 0 0 0 
2.30468 57.4813 2.45023 0.02 0.756147 4549.67 9025.39 0.423198 191 36 1 2.48207e-314 0 0 0 
2.33235 57.46 4.10335 0.02 0.777968 4520.31 8715.62 0.411328 192 36 1 2.48207e-314 0 0 0 
2.36112 57.4711 4.48406 0.02 0.803627 4486.77 8374.73 0.398195 193 37 1 2.48207e-314 0 0 0 
2.38775 57.3756 4.86456 0.02 0.830573 4447.75 8032.56 0.385276 194 38 1 2.48207e-314 0 0 0 
2.41054 57.2795 6.79986 0.02 0.856426 4409.42 7722.95 0.373646 195 37 1 2.48207e-314 0 0 0 
2.43268 57.2201 7.99898 0.02 0.884344 4370.2 7412.62 0.36185 196 37 1 2.48207e-314 0 0 0 
2.455 57.2022 7.9707 0.02 0.915586 4329.77 7093.44 0.349503 197 37 1 2.48207e-314 0 0 0 
2.47672 57.2298 8.11625 0.02 0.949318 4290.02 6778.59 0.337084 198 38 1 2.48207e-314 0 0 0 
2.49573 57.2729 9.53436 0.02 0.98189 4254.47 6499.41 0.325902 199 38 1 2.48207e-314 0 0 0 
2.5268 57.1794 12.3799 0.02 1.04263 4186.56 6023.09 0.306917 200 39 1 2.48206e-314 0 0 0 
2.54364 57.1899 12.0051 0.02 1.08011 4149.64 5762.82 0.296267 201 39 1 2.48206e-314 0 0 0 
2.56122 57.2032 10.6805 0.02 1.12326 4109.42 5487.71 0.284885 202 38 1 2.48206e-314 0 0 0 
2.57831 57.2028 9.57704 0.02 1.16969 4068.28 5217.13 0.273577 203 38 1 2.48206e-314 0 0 0 
2.59428 57.1867 9.71278 0.02 1.21774 4027.9 4961.52 0.262782 204 39 1 2.48206e-314 0 0 0 
2.61015 57.1601 10.6551 0.02 1.27054 3986.83 4706.85 0.251862 205 39 1 2.48206e-314 0 0 0 
2.62936 57.1853 9.23079 0.02 1.34222 3941.38 4404.67 0.23841 206 38 1 2.48206e-314 0 0 0 
2.64641 57.2597 9.41747 0.02 1.41342 3903.93 4143.05 0.226401 207 38 1 2.48206e-314 0 0 0 
2.66067 57.2899 9.0736 0.02 1.47956 3870.59 3924.05 0.216281 208 38 1 2.48206e-314 0 0 0 
2.67442 57.3233 8.09486 0.02 1.55021 3838.96 3714.6 0.206423 209 38 1 2.48206e-314 0 0 0 
2.68672 57.3364 6.74287 0.02 1.62004 3810.1 3527.78 0.197526 210 37 1 2.48206e-314 0 0 0 
2.69785 57.3336 6.36864 0.02 1.68951 3783.41 3359.02 0.189404 211 37 1 2.48206e-314 0 0 0 
2.71006 57.3439 4.26724 0.02 1.77343 3756.69 3177.47 0.180441 212 37 1 2.48206e-314 0 0 0 
2.72265 57.4039 3.02176 0.02 1.86883 3734.21 2997.22 0.17123 213 36 1 2.48206e-314 0 0 0 
