# Time [s]: 0.20222
# Columns: pos [m], vel [m/s], acc [m/s^2], mass [kg], dens [kg/m^3], pres [Pa], ene [J/kg], sml [m], id, neighbor, alpha, gradh, ...additional?
1.36612 -0.673183 0.00182423 0.0025 0.510997 0.432663 2.15241 0.0097848 0 4 1 -0.000134228 
1.3709 -0.673193 0.00198043 0.0025 0.536847 0.426122 1.94995 0.00931364 1 4 1 0.000179242 
1.37544 -0.673202 0.00214304 0.0025 0.548171 0.430786 1.96841 0.00912123 2 3 1 -1.9059e-05 
1.38002 -0.673212 0.00232457 0.0025 0.545902 0.429117 1.96454 0.00915916 3 5 1 3.4863e-06 
1.3846 -0.673223 0.00252226 0.0025 0.546294 0.429266 1.96447 0.00915257 4 4 1 -1.39188e-07 
1.38917 -0.673235 0.00273146 0.0025 0.546299 0.429229 1.96423 0.00915249 5 4 1 1.43126e-07 
1.39375 -0.673248 0.00294846 0.0025 0.546316 0.429221 1.96416 0.00915221 6 4 1 -4.15128e-09 
1.39832 -0.673263 0.00317364 0.0025 0.546322 0.429211 1.96409 0.00915211 7 4 1 7.55451e-09 
1.4029 -0.673278 0.00340795 0.0025 0.546329 0.429202 1.96403 0.009152 8 4 1 4.04959e-09 
1.40748 -0.673296 0.00365202 0.0025 0.546333 0.429192 1.96397 0.00915192 9 4 1 4.71549e-09 
1.41205 -0.673315 0.00391779 0.0025 0.546336 0.429182 1.96391 0.00915188 10 4 1 -3.08923e-09 
1.41663 -0.673336 0.00424038 0.0025 0.546337 0.429171 1.96386 0.00915186 11 3 1 3.69936e-09 
1.4212 -0.673359 0.00466413 0.0025 0.546337 0.42916 1.9638 0.00915186 12 4 1 1.54548e-09 
1.42578 -0.673384 0.00520674 0.0025 0.546335 0.429147 1.96375 0.0091519 13 4 1 1.95152e-09 
1.43036 -0.673412 0.00584706 0.0025 0.54633 0.429132 1.9637 0.00915198 14 4 1 2.18431e-10 
1.43493 -0.673441 0.00655939 0.0025 0.546323 0.429116 1.96366 0.0091521 15 4 1 -3.72341e-09 
1.43951 -0.673474 0.00734666 0.0025 0.546314 0.429097 1.9636 0.00915225 16 4 1 2.51544e-09 
1.44408 -0.673509 0.00821985 0.0025 0.546302 0.429077 1.96355 0.00915245 17 4 1 -1.16063e-09 
1.44866 -0.673549 0.00916362 0.0025 0.546287 0.429054 1.9635 0.0091527 18 4 1 -4.075e-09 
1.45324 -0.673592 0.0101708 0.0025 0.546269 0.429028 1.96345 0.00915299 19 4 1 -4.65751e-10 
1.45781 -0.673641 0.0113229 0.0025 0.546249 0.429 1.96339 0.00915334 20 4 1 -2.50852e-09 
1.46239 -0.673696 0.0127823 0.0025 0.546224 0.428968 1.96333 0.00915375 21 4 1 -3.33881e-09 
1.46697 -0.673758 0.0146366 0.0025 0.546196 0.428931 1.96327 0.00915422 22 4 1 -4.44444e-09 
1.47154 -0.673825 0.0167372 0.0025 0.546162 0.42889 1.9632 0.00915478 23 4 1 -6.28308e-09 
1.47612 -0.673901 0.0187735 0.0025 0.546124 0.428843 1.96312 0.00915544 24 4 1 -4.67566e-09 
1.4807 -0.673988 0.0206571 0.0025 0.546079 0.42879 1.96304 0.00915618 25 4 1 -5.48571e-09 
1.48528 -0.674088 0.0228633 0.0025 0.546029 0.428731 1.96295 0.00915702 26 4 1 -7.74873e-09 
1.48986 -0.674204 0.0261229 0.0025 0.545973 0.428665 1.96285 0.00915797 27 4 1 -8.61118e-09 
1.49444 -0.674333 0.0305112 0.0025 0.545907 0.42859 1.96274 0.00915906 28 4 1 -1.11641e-08 
1.49902 -0.674475 0.0351258 0.0025 0.545832 0.428503 1.96262 0.00916033 29 4 1 -1.29194e-08 
-0.496404 -0.674633 0.0390654 0.0025 0.545746 0.428406 1.96248 0.00916178 30 4 1 -9.68129e-09 
-0.491822 -0.674813 0.0423076 0.0025 0.54565 0.428298 1.96233 0.00916338 31 4 1 -5.54349e-09 
-0.48724 -0.675016 0.045381 0.0025 0.545548 0.428184 1.96217 0.0091651 32 4 1 -5.9404e-09 
-0.482657 -0.675236 0.0489252 0.0025 0.545441 0.428064 1.96201 0.00916689 33 4 1 -3.52429e-09 
-0.478073 -0.675459 0.0524051 0.0025 0.545331 0.427941 1.96184 0.00916874 34 4 1 6.34854e-09 
-0.473489 -0.675666 0.0506273 0.0025 0.545225 0.427822 1.96167 0.00917053 35 4 1 2.20289e-08 
-0.468903 -0.675848 0.0394674 0.0025 0.545135 0.427723 1.96154 0.00917203 36 4 1 3.05777e-08 
-0.464317 -0.675999 0.0395337 0.0025 0.545073 0.427654 1.96144 0.00917308 37 5 1 8.76541e-08 
-0.45973 -0.676039 -0.0262635 0.0025 0.545081 0.42766 1.96144 0.00917296 38 4 1 6.90826e-08 
-0.455144 -0.675906 -0.00078185 0.0025 0.545146 0.427733 1.96153 0.00917185 39 4 1 1.37957e-07 
-0.450558 -0.675806 -0.075159 0.0025 0.545334 0.427958 1.96178 0.0091687 40 4 1 7.12386e-07 
-0.445975 -0.674558 -0.508499 0.0025 0.546082 0.428797 1.96285 0.00915613 41 4 1 1.27546e-06 
-0.441402 -0.67128 -0.968667 0.0025 0.547754 0.43063 1.96525 0.00912818 42 4 1 1.27925e-06 
-0.436847 -0.666454 -1.22189 0.0025 0.550235 0.433356 1.9688 0.00908703 43 4 1 1.34004e-06 
-0.432315 -0.660581 -1.52212 0.0025 0.553419 0.436886 1.97334 0.00903474 44 4 1 2.07606e-06 
-0.427812 -0.652834 -2.10719 0.0025 0.557606 0.441537 1.97929 0.0089669 45 4 1 3.06789e-06 
-0.423348 -0.642433 -2.78948 0.0025 0.563126 0.44767 1.9871 0.00887901 46 4 1 3.73463e-06 
-0.418933 -0.629555 -3.38361 0.0025 0.569969 0.455294 1.99673 0.00877241 47 4 1 3.99553e-06 
-0.414575 -0.614737 -3.81375 0.0025 0.577868 0.464133 2.00775 0.00865249 48 4 1 3.79823e-06 
-0.41028 -0.598968 -3.99189 0.0025 0.586402 0.473738 2.01956 0.00852658 49 4 1 3.41555e-06 
-0.406048 -0.58299 -4.05442 0.0025 0.595186 0.48369 2.0316 0.00840073 50 4 1 3.06544e-06 
-0.401878 -0.567219 -4.03392 0.0025 0.603987 0.493721 2.04356 0.00827832 51 4 1 2.62465e-06 
-0.397769 -0.552021 -3.90457 0.0025 0.612606 0.503604 2.05517 0.00816186 52 4 1 2.29442e-06 
-0.393716 -0.537502 -3.80001 0.0025 0.620949 0.513229 2.06632 0.0080522 53 4 1 2.05211e-06 
-0.389716 -0.523636 -3.65749 0.0025 0.629003 0.522572 2.07699 0.00794909 54 4 1 1.91523e-06 
-0.385767 -0.510396 -3.57435 0.0025 0.636804 0.531673 2.08724 0.00785171 55 4 1 2.02864e-06 
-0.381864 -0.497466 -3.60163 0.0025 0.644512 0.540711 2.09731 0.00775781 56 4 1 2.2113e-06 
-0.378009 -0.484499 -3.67885 0.0025 0.652289 0.549874 2.10739 0.00766532 57 4 1 2.47596e-06 
-0.374199 -0.471304 -3.86559 0.0025 0.660288 0.559341 2.11768 0.00757245 58 4 1 2.70659e-06 
-0.370436 -0.45765 -4.04372 0.0025 0.668603 0.569227 2.12831 0.00747828 59 4 1 2.80726e-06 
-0.36672 -0.443636 -4.2107 0.0025 0.677222 0.579524 2.13924 0.0073831 60 4 1 2.83643e-06 
-0.363052 -0.429327 -4.33695 0.0025 0.686096 0.590178 2.1504 0.00728761 61 4 1 2.79297e-06 
-0.359432 -0.414904 -4.42476 0.0025 0.695149 0.601105 2.16171 0.00719271 62 4 1 2.75519e-06 
-0.355859 -0.400426 -4.50753 0.0025 0.704328 0.612242 2.17308 0.00709897 63 4 1 2.65066e-06 
-0.352333 -0.385995 -4.52397 0.0025 0.713566 0.623509 2.18443 0.00700706 64 4 1 2.5336e-06 
-0.348852 -0.371754 -4.53992 0.0025 0.722803 0.634837 2.19569 0.00691751 65 4 1 2.50935e-06 
-0.345415 -0.357651 -4.58411 0.0025 0.732051 0.646236 2.20688 0.00683012 66 4 1 2.42592e-06 
-0.342022 -0.343669 -4.57786 0.0025 0.74129 0.65768 2.21798 0.00674499 67 4 1 2.34721e-06 
-0.33867 -0.329913 -4.59715 0.0025 0.7505 0.669146 2.22896 0.00666223 68 4 1 2.27253e-06 
-0.335359 -0.316299 -4.58253 0.0025 0.759673 0.680622 2.23981 0.00658178 69 4 1 2.21729e-06 
-0.332088 -0.302934 -4.602 0.0025 0.76881 0.69211 2.25054 0.00650356 70 4 1 2.19572e-06 
-0.328855 -0.28966 -4.62007 0.0025 0.777934 0.703635 2.26119 0.00642728 71 4 1 2.12868e-06 
-0.32566 -0.276552 -4.62274 0.0025 0.787034 0.715183 2.27173 0.00635296 72 4 1 2.06361e-06 
-0.322502 -0.263636 -4.62424 0.0025 0.796099 0.726739 2.28215 0.00628063 73 4 1 1.99523e-06 
-0.31938 -0.25088 -4.61298 0.0025 0.805118 0.738291 2.29246 0.00621027 74 4 1 1.96421e-06 
-0.316292 -0.238313 -4.63253 0.0025 0.814106 0.749856 2.30266 0.0061417 75 4 1 1.94844e-06 
-0.313238 -0.225841 -4.65091 0.0025 0.823085 0.761457 2.31278 0.00607471 76 4 1 1.89296e-06 
-0.310217 -0.213502 -4.6547 0.0025 0.832043 0.773083 2.32281 0.00600931 77 4 1 1.83323e-06 
-0.307228 -0.201324 -4.65334 0.0025 0.840965 0.784712 2.33274 0.00594555 78 4 1 1.75329e-06 
-0.304271 -0.18935 -4.62416 0.0025 0.849831 0.796317 2.34255 0.00588352 79 4 1 1.74864e-06 
-0.301344 -0.177545 -4.66167 0.0025 0.858667 0.807932 2.35225 0.00582298 80 4 1 1.72692e-06 
-0.298448 -0.165817 -4.65474 0.0025 0.86749 0.819578 2.36189 0.00576375 81 4 1 1.6965e-06 
-0.295581 -0.154168 -4.69083 0.0025 0.876299 0.831251 2.37145 0.00570581 82 4 1 1.63815e-06 
-0.292742 -0.14264 -4.66546 0.0025 0.885078 0.84293 2.38093 0.00564922 83 4 1 1.54011e-06 
-0.289931 -0.131362 -4.63489 0.0025 0.893781 0.854555 2.39026 0.00559421 84 4 1 1.48451e-06 
-0.287148 -0.120223 -4.60095 0.0025 0.902405 0.866122 2.39946 0.00554075 85 4 1 1.50571e-06 
-0.28439 -0.109251 -4.64052 0.0025 0.911001 0.877696 2.40857 0.00548847 86 4 1 1.55875e-06 
-0.281659 -0.098323 -4.69754 0.0025 0.91963 0.889356 2.41767 0.00543697 87 4 1 1.51005e-06 
-0.278953 -0.0873233 -4.71378 0.0025 0.928266 0.901065 2.42673 0.00538639 88 4 1 1.30795e-06 
-0.276272 -0.0767105 -4.57056 0.0025 0.936777 0.912643 2.4356 0.00533745 89 4 1 1.09911e-06 
-0.273616 -0.0664043 -4.41234 0.0025 0.945059 0.923967 2.44418 0.00529067 90 4 1 1.38157e-06 
-0.270982 -0.0563883 -4.68805 0.0025 0.953356 0.935361 2.45274 0.00524463 91 4 1 1.66007e-06 
-0.268371 -0.0455073 -4.88702 0.0025 0.961874 0.947037 2.46151 0.00519819 92 4 1 2.65678e-07 
-0.265783 -0.0361026 -3.53147 0.0025 0.96966 0.957781 2.46942 0.00515645 93 4 1 7.44573e-07 
-0.263214 -0.0279755 -4.33121 0.0025 0.977117 0.968209 2.47696 0.0051171 94 4 1 3.36876e-06 
-0.260666 -0.0164027 -6.34059 0.0025 0.986214 0.980812 2.48625 0.00506989 95 4 1 1.18663e-06 
-0.258144 -0.00437368 -4.47494 0.0025 0.995172 0.993129 2.49533 0.00502426 96 4 1 -3.28034e-06 
-0.255642 0.00113293 -0.721158 0.0025 1.00046 1.00057 2.50049 0.00499769 97 4 1 -9.39832e-07 
-0.253147 0.00364718 -2.30694 0.0025 1.00435 1.00627 2.50425 0.00497836 98 4 1 5.45491e-06 
-0.250663 0.0137682 -7.32197 0.0025 1.0123 1.01742 2.51233 0.00493923 99 4 1 3.10406e-06 
-0.248207 0.0278516 -5.46818 0.0025 1.0221 1.03092 2.52216 0.00489189 100 4 1 -4.55949e-06 
-0.245771 0.0329944 -0.308915 0.0025 1.02694 1.03772 2.52686 0.00486883 101 3 1 -4.09574e-06 
-0.243338 0.0322237 0.826244 0.0025 1.02687 1.03777 2.52671 0.00486917 102 4 1 -1.04376e-06 
-0.240902 0.030309 1.02057 0.0025 1.02532 1.03563 2.52518 0.00487652 103 4 1 -2.53442e-07 
-0.238462 0.0281018 1.10363 0.0025 1.02339 1.0329 2.52327 0.00488573 104 4 1 -1.45016e-07 
-0.236017 0.0256372 1.23272 0.0025 1.0212 1.02981 2.5211 0.00489621 105 4 1 -1.48781e-07 
-0.233566 0.0228376 1.40343 0.0025 1.01874 1.02633 2.51867 0.00490805 106 4 1 -9.00194e-08 
-0.231109 0.0197202 1.54817 0.0025 1.01605 1.02255 2.516 0.00492102 107 4 1 4.07569e-08 
-0.228645 0.0164238 1.60909 0.0025 1.01327 1.01863 2.51323 0.00493454 108 4 1 1.98048e-07 
-0.226174 0.0131571 1.56169 0.0025 1.01056 1.01483 2.51053 0.00494777 109 4 1 3.30261e-07 
-0.223697 0.0101288 1.41631 0.0025 1.00808 1.01135 2.50806 0.00495992 110 4 1 4.06309e-07 
-0.221214 0.0074952 1.20564 0.0025 1.00595 1.00836 2.50594 0.00497042 111 4 1 4.21544e-07 
-0.218726 0.0053359 0.968648 0.0025 1.00422 1.00593 2.50421 0.00497898 112 4 1 3.89608e-07 
-0.216235 0.00365837 0.738441 0.0025 1.00289 1.00406 2.50288 0.00498561 113 4 1 3.3054e-07 
-0.213741 0.00241781 0.536589 0.0025 1.0019 1.00268 2.5019 0.0049905 114 4 1 2.62201e-07 
-0.211245 0.00154118 0.372982 0.0025 1.00121 1.00171 2.50121 0.00499395 115 4 1 1.96765e-07 
-0.208747 0.000947575 0.248623 0.0025 1.00074 1.00105 2.50074 0.00499628 116 4 1 1.40715e-07 
-0.206248 0.000561667 0.159161 0.0025 1.00044 1.00062 2.50044 0.0049978 117 4 1 9.63136e-08 
-0.203749 0.000320588 0.0979019 0.0025 1.00025 1.00036 2.50025 0.00499874 118 4 1 6.32338e-08 
-0.20125 0.00017587 0.057837 0.0025 1.00014 1.0002 2.50014 0.00499931 119 4 1 3.98512e-08 
-0.19875 9.24715e-05 0.0327701 0.0025 1.00007 1.0001 2.50007 0.00499964 120 4 1 2.40985e-08 
-0.19625 4.64186e-05 0.0177647 0.0025 1.00004 1.00005 2.50004 0.00499982 121 4 1 1.39636e-08 
-0.19375 2.21238e-05 0.00918019 0.0025 1.00002 1.00002 2.50002 0.00499991 122 4 1 7.73468e-09 
-0.19125 9.93342e-06 0.0044982 0.0025 1.00001 1.00001 2.50001 0.00499996 123 4 1 4.08138e-09 
-0.18875 4.15252e-06 0.00207349 0.0025 1 1 2.5 0.00499998 124 4 1 2.04121e-09 
-0.18625 1.58622e-06 0.00088833 0.0025 1 1 2.5 0.00499999 125 4 1 9.60441e-10 
-0.18375 5.35642e-07 0.000346754 0.0025 1 1 2.5 0.005 126 4 1 4.20296e-10 
-0.18125 1.49234e-07 0.000118737 0.0025 1 1 2.5 0.005 127 4 1 1.67878e-10 
-0.17875 2.80319e-08 3.26466e-05 0.0025 1 1 2.5 0.005 128 4 1 5.93096e-11 
-0.17625 -3.78033e-10 5.33981e-06 0.0025 1 1 2.5 0.005 129 4 1 1.75959e-11 
-0.17375 -2.09709e-10 -2.95892e-06 0.0025 1 1 2.5 0.005 130 5 1 2.321e-12 
-0.17125 2.41991e-09 -4.11104e-07 0.0025 1 1 2.5 0.005 131 3 1 -1.4884e-12 
-0.16875 2.13057e-09 3.64689e-07 0.0025 1 1 2.5 0.005 132 4 1 -3.23951e-13 
-0.16625 1.31097e-09 4.12129e-07 0.0025 1 1 2.5 0.005 133 4 1 1.03059e-13 
-0.16375 6.57579e-10 2.78652e-07 0.0025 1 1 2.5 0.005 134 4 1 1.71291e-13 
-0.16125 2.7818e-10 1.45764e-07 0.0025 1 1 2.5 0.005 135 4 1 1.22982e-13 
-0.15875 9.79546e-11 6.35747e-08 0.0025 1 1 2.5 0.005 136 4 1 6.72078e-14 
-0.15625 2.66378e-11 2.26635e-08 0.0025 1 1 2.5 0.005 137 4 1 3.01164e-14 
-0.15375 4.13203e-12 5.99351e-09 0.0025 1 1 2.5 0.005 138 4 1 1.11744e-14 
-0.15125 -5.88125e-13 4.81123e-10 0.0025 1 1 2.5 0.005 139 4 1 3.09051e-15 
-0.14875 6.41716e-14 -5.77302e-10 0.0025 1 1 2.5 0.005 140 5 1 1.247e-16 
-0.14625 4.57114e-13 -2.27942e-11 0.0025 1 1 2.5 0.005 141 3 1 -2.90257e-16 
-0.14375 3.3984e-13 8.87894e-11 0.0025 1 1 2.5 0.005 142 4 1 -3.90799e-17 
-0.14125 1.75911e-13 8.19682e-11 0.0025 1 1 2.5 0.005 143 4 1 4.72511e-17 
-0.13875 6.95833e-14 4.16662e-11 0.0025 1 1 2.5 0.005 144 4 1 2.94875e-17 
-0.13625 1.61927e-14 1.8531e-11 0.0025 1 1 2.5 0.005 145 4 1 2.02505e-17 
-0.13375 -6.78783e-16 1.98952e-12 0.0025 1 1 2.5 0.005 146 5 1 9.9476e-18 
-0.13125 -4.00444e-16 -5.11591e-13 0.0025 1 1 2.5 0.005 147 5 1 -1.42109e-18 
-0.12875 -7.55392e-47 -8.96831e-44 0.0025 1 1 2.5 0.005 148 5 1 -1.42109e-18 
-0.12625 0 0 0.0025 1 1 2.5 0.005 149 5 1 -1.42109e-18 
-0.12375 0 0 0.0025 1 1 2.5 0.005 150 5 1 -1.42109e-18 
-0.12125 0 0 0.0025 1 1 2.5 0.005 151 5 1 -1.42109e-18 
-0.11875 0 0 0.0025 1 1 2.5 0.005 152 5 1 -1.42109e-18 
-0.11625 0 0 0.0025 1 1 2.5 0.005 153 5 1 -1.42109e-18 
-0.11375 0 0 0.0025 1 1 2.5 0.005 154 5 1 -1.42109e-18 
-0.11125 0 0 0.0025 1 1 2.5 0.005 155 5 1 -1.42109e-18 
-0.10875 0 0 0.0025 1 1 2.5 0.005 156 5 1 -1.42109e-18 
-0.10625 -2.06024e-46 0 0.0025 1 1 2.5 0.005 157 5 1 -1.42109e-18 
-0.10375 -1.39307e-16 -3.36312e-44 0.0025 1 1 2.5 0.005 158 5 1 -1.42109e-18 
-0.10125 -2.43804e-16 -1.13687e-13 0.0025 1 1 2.5 0.005 159 5 1 -1.42109e-18 
-0.09875 -3.83442e-16 1.13687e-13 0.0025 1 1 2.5 0.005 160 5 1 -1.42109e-18 
-0.09625 -5.22779e-16 -1.13687e-13 0.0025 1 1 2.5 0.005 161 5 1 -1.42109e-18 
-0.09375 -6.62075e-16 1.13687e-13 0.0025 1 1 2.5 0.005 162 5 1 -1.42109e-18 
-0.09125 -8.36083e-16 -1.12104e-44 0.0025 1 1 2.5 0.005 163 5 1 -1.42109e-18 
-0.08875 -1.07971e-15 -1.13687e-13 0.0025 1 1 2.5 0.005 164 5 1 -1.42109e-18 
-0.08625 -1.35772e-15 1.13687e-13 0.0025 1 1 2.5 0.005 165 5 1 -1.77636e-18 
-0.08375 -1.93143e-15 5.68434e-14 0.0025 1 1 2.5 0.005 166 5 1 -1.06581e-18 
-0.08125 2.13244e-15 -1.90577e-43 0.0025 1 1 2.5 0.005 167 5 1 -2.84217e-18 
-0.07875 6.37884e-16 -2.27374e-13 0.0025 1 1 2.5 0.005 168 5 1 3.19744e-18 
-0.07625 -7.77846e-17 -2.84217e-13 0.0025 1 1 2.5 0.005 169 5 1 -7.81597e-18 
-0.07375 -3.47896e-15 -1.7053e-13 0.0025 1 1 2.5 0.005 170 5 1 9.59233e-18 
-0.07125 -2.3065e-15 5.68434e-14 0.0025 1 1 2.5 0.005 171 5 1 -2.02505e-17 
-0.06875 -4.84808e-15 3.41061e-13 0.0025 1 1 2.5 0.005 172 5 1 1.95399e-17 
-0.06625 1.54504e-15 4.54747e-13 0.0025 1 1 2.5 0.005 173 5 1 -2.80664e-17 
-0.06375 -9.45177e-16 -1.13687e-13 0.0025 1 1 2.5 0.005 174 4 1 1.56319e-17 
-0.06125 -4.02584e-15 -7.95808e-13 0.0025 1 1 2.5 0.005 175 3 1 1.38556e-17 
-0.05875 -7.08604e-16 3.0127e-12 0.0025 1 1 2.5 0.005 176 4 1 -2.20268e-17 
-0.05625 1.44397e-15 -1.87583e-12 0.0025 1 1 2.5 0.005 177 5 1 1.56319e-17 
-0.05375 -5.71962e-16 -4.54747e-13 0.0025 1 1 2.5 0.005 178 4 1 -1.03029e-17 
-0.05125 1.43939e-15 1.13687e-13 0.0025 1 1 2.5 0.005 179 5 1 3.55271e-19 
-0.04875 8.78643e-16 2.27374e-13 0.0025 1 1 2.5 0.005 180 5 1 -4.26326e-18 
-0.04625 1.25065e-15 -6.72623e-44 0.0025 1 1 2.5 0.005 181 5 1 2.46519e-33 
-0.04375 1.93201e-16 2.24208e-44 0.0025 1 1 2.5 0.005 182 5 1 -2.13163e-18 
-0.04125 -4.06818e-16 -1.79366e-43 0.0025 1 1 2.5 0.005 183 5 1 -3.19744e-18 
-0.03875 -3.34382e-15 3.9443e-29 0.0025 1 1 2.5 0.005 184 5 1 4.26326e-18 
-0.03625 -2.61818e-15 -1.13687e-13 0.0025 1 1 2.5 0.005 185 5 1 -1.13687e-17 
-0.03375 -4.37597e-15 2.27374e-13 0.0025 1 1 2.5 0.005 186 4 1 -1.24345e-17 
-0.03125 1.1208e-15 1.30655e-26 0.0025 1 1 2.5 0.005 187 3 1 4.72511e-17 
-0.02875 -1.04449e-15 -2.27374e-13 0.0025 1 1 2.5 0.005 188 4 1 -3.58824e-17 
-0.02625 -1.44385e-15 -5.68434e-14 0.0025 1 1 2.5 0.005 189 5 1 9.59233e-18 
-0.02375 -2.1158e-15 -5.68434e-14 0.0025 1 1 2.5 0.005 190 3 1 -2.13163e-18 
-0.02125 -5.09163e-16 1.13687e-13 0.0025 1 1 2.5 0.005 191 4 1 3.55271e-18 
-0.01875 -6.24565e-16 1.13687e-13 0.0025 1 1 2.5 0.005 192 5 1 -4.9738e-18 
-0.01625 -1.88425e-15 5.68434e-14 0.0025 1 1 2.5 0.005 193 4 1 1.10934e-32 
-0.01375 -1.39226e-15 -5.68434e-14 0.0025 1 1 2.5 0.005 194 4 1 1.42109e-18 
-0.01125 -9.58262e-16 -5.68434e-13 0.0025 1 1 2.5 0.005 195 5 1 -3.19744e-18 
-0.00875 -1.62842e-15 3.41061e-13 0.0025 1 1 2.5 0.005 196 5 1 -1.42109e-18 
-0.00625 -7.6016e-16 -1.7053e-13 0.0025 1 1 2.5 0.005 197 4 1 -1.42109e-18 
-0.00375 -9.69508e-16 3.41061e-13 0.0025 1 1 2.5 0.005 198 4 1 1.2326e-33 
-0.00125 -9.41998e-16 4.93038e-29 0.0025 1 1 2.5 0.005 199 5 1 -1.42109e-18 
0.00125 -7.74937e-17 -2.27374e-13 0.0025 1 1 2.5 0.005 200 5 1 5.00742e-33 
0.00375 -3.4976e-16 1.13687e-13 0.0025 1 1 2.5 0.005 201 3 1 0 
0.00625 -1.78465e-18 2.24208e-44 0.0025 1 1 2.5 0.005 202 5 1 -1.06581e-18 
0.00875 -1.1966e-15 1.13687e-13 0.0025 1 1 2.5 0.005 203 3 1 0 
0.01125 3.98178e-16 1.13687e-13 0.0025 1 1 2.5 0.005 204 4 1 2.13163e-18 
0.01375 -2.62303e-16 -1.13687e-13 0.0025 1 1 2.5 0.005 205 5 1 -4.26326e-18 
0.01625 -1.06204e-15 -5.68434e-14 0.0025 1 1 2.5 0.005 206 4 1 2.4869e-18 
0.01875 -1.725e-16 -1.3312e-27 0.0025 1 1 2.5 0.005 207 4 1 -5.32907e-18 
0.02125 -8.64524e-16 5.68434e-14 0.0025 1 1 2.5 0.005 208 3 1 6.75016e-18 
0.02375 8.76411e-17 1.41995e-27 0.0025 1 1 2.5 0.005 209 3 1 1.06581e-18 
0.02625 1.08285e-15 1.13687e-13 0.0025 1 1 2.5 0.005 210 4 1 -1.77636e-18 
0.02875 2.74224e-16 1.13687e-13 0.0025 1 1 2.5 0.005 211 4 1 -4.26326e-18 
0.03125 2.46816e-15 3.97904e-13 0.0025 1 1 2.5 0.005 212 3 1 3.19744e-18 
0.03375 2.3238e-15 1.7053e-13 0.0025 1 1 2.5 0.005 213 4 1 1.03029e-17 
0.03625 1.83799e-15 -1.13687e-13 0.0025 1 1 2.5 0.005 214 5 1 -1.77636e-17 
0.03875 8.78089e-16 -1.13687e-13 0.0025 1 1 2.5 0.005 215 4 1 1.74083e-17 
0.04125 9.13044e-16 1.45939e-27 0.0025 1 1 2.5 0.005 216 4 1 -1.35003e-17 
0.04375 3.74628e-16 -5.68434e-14 0.0025 1 1 2.5 0.005 217 4 1 -3.90799e-18 
0.04625 4.39175e-15 -5.68434e-14 0.0025 1 1 2.5 0.005 218 4 1 6.03961e-18 
0.04875 1.68962e-15 1.38051e-27 0.0025 1 1 2.5 0.005 219 5 1 -2.84217e-18 
0.05125 5.18802e-15 -5.68434e-14 0.0025 1 1 2.5 0.005 220 5 1 -2.13163e-18 
0.05375 4.24254e-15 -5.68434e-13 0.0025 1 1 2.5 0.005 221 4 1 -1.42109e-18 
0.05625 2.0917e-15 2.16005e-12 0.0025 1 1 2.5 0.005 222 5 1 1.91847e-17 
0.05875 4.59619e-15 -3.80851e-12 0.0025 1 1 2.5 0.005 223 5 1 -5.32907e-17 
0.06125 1.62222e-15 2.50111e-12 0.0025 1 1 2.5 0.005 224 4 1 3.73035e-17 
0.06375 6.75472e-15 -3.41061e-13 0.0025 1 1 2.5 0.005 225 3 1 1.49214e-17 
0.06625 1.63112e-15 1.13687e-13 0.0025 1 1 2.5 0.005 226 5 1 -2.91323e-17 
0.06875 7.24751e-15 -5.68434e-14 0.0025 1 1 2.5 0.005 227 5 1 1.95399e-17 
0.07125 3.90081e-15 -1.13687e-13 0.0025 1 1 2.5 0.005 228 5 1 -1.66978e-17 
0.07375 4.7376e-15 -7.84727e-44 0.0025 1 1 2.5 0.005 229 5 1 9.59233e-18 
0.07625 4.52885e-15 3.36312e-44 0.0025 1 1 2.5 0.005 230 5 1 -1.35003e-17 
0.07875 5.37225e-15 1.13687e-13 0.0025 1 1 2.5 0.005 231 5 1 8.88178e-18 
0.08125 4.86593e-15 1.13687e-13 0.0025 1 1 2.5 0.005 232 5 1 -1.1724e-17 
0.08375 4.23572e-15 1.13687e-13 0.0025 1 1 2.5 0.005 233 5 1 7.4607e-18 
0.08625 1.2348e-15 5.68434e-14 0.0025 1 1 2.5 0.005 234 5 1 -5.32907e-18 
0.08875 1.20692e-15 -1.13687e-13 0.0025 1 1 2.5 0.005 235 5 1 -3.55271e-19 
