# Time [s]: 0.203445
# Columns: pos [m], vel [m/s], acc [m/s^2], mass [kg], dens [kg/m^3], pres [Pa], ene [J/kg], sml [m], id, neighbor, alpha, gradh, ...additional?
1.36529 -0.673181 0.00178664 0.0025 0.510998 0.432664 2.15241 0.00978478 0 4 1 -0.000134227 
1.37007 -0.67319 0.00193944 0.0025 0.536848 0.426124 1.94995 0.00931362 1 4 1 0.000179242 
1.37461 -0.6732 0.00209874 0.0025 0.548173 0.430788 1.96841 0.00912121 2 3 1 -1.9059e-05 
1.37919 -0.67321 0.00227582 0.0025 0.545903 0.429118 1.96455 0.00915913 3 5 1 3.48629e-06 
1.38377 -0.67322 0.00246664 0.0025 0.546296 0.429267 1.96447 0.00915255 4 4 1 -1.39169e-07 
1.38835 -0.673232 0.0026665 0.0025 0.546301 0.429231 1.96423 0.00915246 5 4 1 1.43153e-07 
1.39292 -0.673245 0.00287274 0.0025 0.546318 0.429223 1.96417 0.00915218 6 4 1 -4.12027e-09 
1.3975 -0.673259 0.00308589 0.0025 0.546324 0.429213 1.96409 0.00915207 7 4 1 7.58994e-09 
1.40208 -0.673274 0.00330631 0.0025 0.546331 0.429204 1.96403 0.00915196 8 4 1 4.08861e-09 
1.40665 -0.673291 0.00353685 0.0025 0.546336 0.429195 1.96397 0.00915188 9 4 1 4.75109e-09 
1.41123 -0.67331 0.00379569 0.0025 0.546339 0.429186 1.96392 0.00915183 10 4 1 -3.06938e-09 
1.4158 -0.673331 0.00412141 0.0025 0.546341 0.429175 1.96386 0.0091518 11 4 1 3.70018e-09 
1.42038 -0.673353 0.00455133 0.0025 0.546341 0.429163 1.96381 0.0091518 12 3 1 1.54423e-09 
1.42495 -0.673378 0.0050905 0.0025 0.546338 0.429151 1.96376 0.00915184 13 4 1 1.97265e-09 
1.42953 -0.673405 0.00571364 0.0025 0.546334 0.429137 1.96371 0.00915191 14 4 1 2.69476e-10 
1.43411 -0.673434 0.00640223 0.0025 0.546327 0.429121 1.96366 0.00915203 15 4 1 -3.65256e-09 
1.43868 -0.673465 0.00716252 0.0025 0.546318 0.429103 1.96361 0.00915217 16 4 1 2.60404e-09 
1.44326 -0.673499 0.00799706 0.0025 0.546307 0.429083 1.96356 0.00915236 17 4 1 -1.04206e-09 
1.44784 -0.673538 0.00888829 0.0025 0.546293 0.429061 1.96351 0.0091526 18 4 1 -3.93371e-09 
1.45241 -0.67358 0.00985095 0.0025 0.546276 0.429036 1.96346 0.00915288 19 4 1 -3.48915e-10 
1.45699 -0.673628 0.0109924 0.0025 0.546256 0.429008 1.9634 0.00915321 20 4 1 -2.45333e-09 
1.46156 -0.673681 0.0124598 0.0025 0.546233 0.428977 1.96334 0.00915361 21 4 1 -3.29111e-09 
1.46614 -0.67374 0.0142726 0.0025 0.546205 0.428941 1.96328 0.00915407 22 4 1 -4.26062e-09 
1.47072 -0.673805 0.0162222 0.0025 0.546173 0.428901 1.96321 0.00915461 23 4 1 -5.87323e-09 
1.4753 -0.673878 0.0180418 0.0025 0.546135 0.428855 1.96314 0.00915524 24 4 1 -4.17767e-09 
1.47987 -0.673963 0.0198025 0.0025 0.546093 0.428805 1.96306 0.00915595 25 4 1 -5.22077e-09 
1.48445 -0.674061 0.0220852 0.0025 0.546045 0.428748 1.96297 0.00915676 26 4 1 -7.85274e-09 
1.48903 -0.674172 0.0254701 0.0025 0.54599 0.428684 1.96288 0.00915768 27 4 1 -8.73589e-09 
1.49361 -0.674296 0.0297414 0.0025 0.545927 0.428611 1.96277 0.00915874 28 4 1 -1.08173e-08 
1.49819 -0.674432 0.033965 0.0025 0.545853 0.428527 1.96265 0.00915997 29 4 1 -1.21575e-08 
-0.49723 -0.674586 0.0375414 0.0025 0.54577 0.428433 1.96252 0.00916137 30 4 1 -9.15616e-09 
-0.492649 -0.674762 0.040737 0.0025 0.545678 0.428329 1.96237 0.00916291 31 4 1 -5.97065e-09 
-0.488067 -0.674961 0.0442732 0.0025 0.545579 0.428217 1.96222 0.00916458 32 4 1 -7.76259e-09 
-0.483485 -0.675176 0.0487036 0.0025 0.545473 0.428099 1.96205 0.00916636 33 4 1 -6.10148e-09 
-0.478901 -0.675394 0.0524454 0.0025 0.545363 0.427975 1.96188 0.00916821 34 4 1 4.38588e-09 
-0.474316 -0.675604 0.0507323 0.0025 0.545253 0.427854 1.96172 0.00917005 35 4 1 1.96336e-08 
-0.469731 -0.675798 0.0423253 0.0025 0.54516 0.427749 1.96157 0.00917162 36 4 1 2.66378e-08 
-0.465145 -0.675952 0.0368071 0.0025 0.54509 0.427672 1.96146 0.0091728 37 4 1 7.05282e-08 
-0.460558 -0.676057 -0.00280272 0.0025 0.545076 0.427655 1.96143 0.00917304 38 5 1 8.39854e-08 
-0.455972 -0.675919 -0.0202097 0.0025 0.545131 0.427714 1.9615 0.00917211 39 4 1 7.60564e-08 
-0.451386 -0.67586 -0.01705 0.0025 0.545256 0.427866 1.96167 0.00917 40 4 1 5.08571e-07 
-0.446802 -0.675092 -0.362811 0.0025 0.545791 0.428474 1.96243 0.00916101 41 4 1 1.16375e-06 
-0.442225 -0.672399 -0.854336 0.0025 0.547192 0.430014 1.96444 0.00913756 42 4 1 1.31901e-06 
-0.437664 -0.667917 -1.16716 0.0025 0.549467 0.432509 1.9677 0.00909973 43 4 1 1.26379e-06 
-0.433125 -0.662374 -1.40844 0.0025 0.552437 0.435794 1.97194 0.00905081 44 4 1 1.78589e-06 
-0.428613 -0.655293 -1.90957 0.0025 0.556283 0.440066 1.97741 0.00898823 45 4 1 2.77105e-06 
-0.424137 -0.645725 -2.5842 0.0025 0.561381 0.445729 1.98464 0.0089066 46 4 1 3.53838e-06 
-0.419706 -0.633588 -3.2005 0.0025 0.567821 0.452897 1.99371 0.00880559 47 4 1 3.92774e-06 
-0.415331 -0.619338 -3.69387 0.0025 0.575407 0.461373 2.00433 0.0086895 48 4 1 3.85394e-06 
-0.411016 -0.603823 -3.93298 0.0025 0.583752 0.470748 2.0159 0.00856528 49 4 1 3.49836e-06 
-0.406765 -0.587939 -4.02529 0.0025 0.592446 0.480579 2.02786 0.00843958 50 4 1 3.15737e-06 
-0.402576 -0.572163 -4.0344 0.0025 0.601225 0.490565 2.03982 0.00831635 51 4 1 2.72866e-06 
-0.398448 -0.556817 -3.92557 0.0025 0.609873 0.500463 2.0515 0.00819843 52 4 1 2.36244e-06 
-0.394377 -0.542168 -3.81647 0.0025 0.618265 0.510127 2.06274 0.00808714 53 4 1 2.10591e-06 
-0.390361 -0.528134 -3.68556 0.0025 0.626374 0.519516 2.07351 0.00798246 54 4 1 1.92407e-06 
-0.386395 -0.514775 -3.57682 0.0025 0.63421 0.528641 2.08384 0.00788382 55 4 1 1.95134e-06 
-0.382477 -0.501854 -3.56373 0.0025 0.641892 0.537634 2.0939 0.00778947 56 4 1 2.11819e-06 
-0.378605 -0.488973 -3.62628 0.0025 0.649588 0.546687 2.1039 0.00769718 57 4 1 2.35596e-06 
-0.374779 -0.475982 -3.77323 0.0025 0.657455 0.555982 2.11404 0.00760509 58 4 1 2.60499e-06 
-0.370999 -0.462553 -3.9601 0.0025 0.665609 0.565661 2.12449 0.00751192 59 4 1 2.74873e-06 
-0.367267 -0.448744 -4.12793 0.0025 0.674074 0.575756 2.13526 0.00741758 60 4 1 2.80414e-06 
-0.363582 -0.434601 -4.27324 0.0025 0.682813 0.586229 2.14628 0.00732264 61 4 1 2.77919e-06 
-0.359944 -0.420289 -4.36659 0.0025 0.691756 0.597002 2.15748 0.00722798 62 4 1 2.73768e-06 
-0.356353 -0.405916 -4.45364 0.0025 0.700839 0.608001 2.16876 0.00713431 63 4 1 2.66817e-06 
-0.352809 -0.391521 -4.49697 0.0025 0.710009 0.619163 2.18007 0.00704216 64 4 1 2.54528e-06 
-0.349311 -0.377294 -4.50592 0.0025 0.719197 0.630407 2.1913 0.00695219 65 4 1 2.48281e-06 
-0.345857 -0.363239 -4.53789 0.0025 0.728386 0.64171 2.20246 0.0068645 66 4 1 2.4364e-06 
-0.342446 -0.349265 -4.5577 0.0025 0.737576 0.653071 2.21353 0.00677896 67 4 1 2.34602e-06 
-0.339078 -0.33552 -4.5566 0.0025 0.746742 0.66446 2.22449 0.00669575 68 4 1 2.28209e-06 
-0.33575 -0.321905 -4.56989 0.0025 0.755878 0.675866 2.23533 0.00661483 69 4 1 2.20769e-06 
-0.332462 -0.308544 -4.55664 0.0025 0.764974 0.687279 2.24605 0.00653617 70 4 1 2.17393e-06 
-0.329214 -0.2953 -4.58757 0.0025 0.774044 0.698715 2.25666 0.00645958 71 4 1 2.14426e-06 
-0.326003 -0.282201 -4.59785 0.0025 0.783105 0.710189 2.26718 0.00638484 72 4 1 2.06264e-06 
-0.322829 -0.269282 -4.59295 0.0025 0.792132 0.721674 2.2776 0.00631208 73 4 1 2.00191e-06 
-0.31969 -0.25652 -4.59391 0.0025 0.801117 0.73316 2.28789 0.00624128 74 4 1 1.95128e-06 
-0.316587 -0.243962 -4.59082 0.0025 0.810064 0.744648 2.29808 0.00617235 75 4 1 1.93015e-06 
-0.313518 -0.231517 -4.61516 0.0025 0.81899 0.756159 2.30817 0.00610508 76 4 1 1.90209e-06 
-0.310482 -0.219188 -4.62702 0.0025 0.827906 0.767707 2.31819 0.00603934 77 4 1 1.84759e-06 
-0.307478 -0.207014 -4.63335 0.0025 0.836798 0.779274 2.32811 0.00597516 78 4 1 1.77083e-06 
-0.304506 -0.195006 -4.61218 0.0025 0.845644 0.790829 2.33792 0.00591265 79 4 1 1.72119e-06 
-0.301565 -0.183226 -4.61202 0.0025 0.854439 0.802368 2.34762 0.00585179 80 4 1 1.7025e-06 
-0.298654 -0.171496 -4.61825 0.0025 0.863205 0.813915 2.35722 0.00579237 81 4 1 1.69555e-06 
-0.295773 -0.15989 -4.64944 0.0025 0.871962 0.825499 2.36675 0.00573419 82 4 1 1.67242e-06 
-0.29292 -0.148356 -4.66502 0.0025 0.880717 0.837121 2.37623 0.0056772 83 4 1 1.55643e-06 
-0.290096 -0.137024 -4.60914 0.0025 0.889407 0.848706 2.38558 0.00562172 84 4 1 1.48862e-06 
-0.287298 -0.125857 -4.59794 0.0025 0.898015 0.860228 2.39478 0.00556784 85 4 1 1.48964e-06 
-0.284528 -0.114907 -4.59414 0.0025 0.906579 0.871734 2.40389 0.00551524 86 4 1 1.47793e-06 
-0.281783 -0.104021 -4.60771 0.0025 0.91512 0.883257 2.41292 0.00546376 87 4 1 1.56144e-06 
-0.279064 -0.0931126 -4.72634 0.0025 0.923714 0.894888 2.42196 0.00541293 88 4 1 1.40999e-06 
-0.27637 -0.0823322 -4.6059 0.0025 0.932263 0.906497 2.4309 0.00536329 89 4 1 1.20329e-06 
-0.2737 -0.0718641 -4.51153 0.0025 0.940634 0.917907 2.4396 0.00531556 90 4 1 1.06539e-06 
-0.271054 -0.0618963 -4.33453 0.0025 0.948795 0.929095 2.44803 0.00526984 91 4 1 1.66065e-06 
-0.26843 -0.0516129 -4.98189 0.0025 0.957178 0.940606 2.45668 0.00522369 92 4 1 1.22655e-06 
-0.26583 -0.0408983 -4.34796 0.0025 0.96551 0.952033 2.46523 0.00517861 93 4 1 -7.65239e-08 
-0.263252 -0.0326186 -3.39707 0.0025 0.972869 0.962259 2.47266 0.00513944 94 4 1 1.83211e-06 
-0.260691 -0.0235722 -5.22244 0.0025 0.980759 0.973277 2.48067 0.00509809 95 4 1 3.31671e-06 
-0.258153 -0.0110377 -6.18118 0.0025 0.990215 0.986321 2.49032 0.00504941 96 4 1 -7.80944e-07 
-0.255641 -0.000974619 -2.90704 0.0025 0.998002 0.997059 2.49814 0.00501001 97 4 1 -3.41389e-06 
-0.253143 0.0022116 -0.386417 0.0025 1.00206 1.00289 2.50202 0.00498973 98 4 1 1.50136e-06 
-0.250652 0.00650423 -4.29818 0.0025 1.00694 1.00995 2.50687 0.00496553 99 4 1 6.14407e-06 
-0.248178 0.0195438 -7.68661 0.0025 1.01631 1.02295 2.51638 0.00491976 100 4 1 -2.6606e-07 
-0.245732 0.0311198 -3.10114 0.0025 1.02473 1.03457 2.52474 0.00487935 101 4 1 -5.30663e-06 
-0.243298 0.0329514 0.399695 0.0025 1.02727 1.03825 2.52714 0.00486726 102 3 1 -2.71455e-06 
-0.240864 0.0315255 0.937309 0.0025 1.02632 1.03703 2.52617 0.00487176 103 4 1 -5.81939e-07 
-0.238427 0.029433 1.07517 0.0025 1.02456 1.03455 2.52442 0.00488016 104 4 1 -1.66636e-07 
-0.235984 0.0271013 1.1606 0.0025 1.0225 1.03165 2.52239 0.00488998 105 4 1 -1.35643e-07 
-0.233537 0.0244949 1.30389 0.0025 1.02019 1.02839 2.52011 0.00490103 106 4 1 -1.21062e-07 
-0.231083 0.0215654 1.46217 0.0025 1.01764 1.02479 2.51758 0.00491334 107 4 1 -3.6419e-08 
-0.228623 0.0183756 1.57282 0.0025 1.01491 1.02095 2.51487 0.00492653 108 4 1 1.04197e-07 
-0.226157 0.0150907 1.59016 0.0025 1.01216 1.01708 2.51213 0.00493994 109 4 1 2.51455e-07 
-0.223683 0.0119196 1.5032 0.0025 1.00954 1.0134 2.50952 0.00495273 110 4 1 3.61213e-07 
-0.221204 0.0090505 1.33112 0.0025 1.00721 1.01013 2.50719 0.00496422 111 4 1 4.12647e-07 
-0.218719 0.0066091 1.10932 0.0025 1.00524 1.00736 2.50523 0.00497393 112 4 1 4.08529e-07 
-0.21623 0.00464601 0.874652 0.0025 1.00367 1.00516 2.50366 0.00498171 113 4 1 3.65312e-07 
-0.213737 0.00314723 0.655701 0.0025 1.00248 1.00349 2.50247 0.00498762 114 4 1 3.0231e-07 
-0.211242 0.00205606 0.469323 0.0025 1.00162 1.00228 2.50161 0.00499192 115 4 1 2.35112e-07 
-0.208746 0.00129591 0.321739 0.0025 1.00102 1.00143 2.50101 0.00499491 116 4 1 1.73543e-07 
-0.206247 0.000787956 0.211701 0.0025 1.00062 1.00087 2.50062 0.00499691 117 4 1 1.22319e-07 
-0.203749 0.000461855 0.13385 0.0025 1.00036 1.00051 2.50036 0.00499819 118 4 1 8.2612e-08 
-0.201249 0.000260612 0.0813323 0.0025 1.0002 1.00029 2.5002 0.00499898 119 4 1 5.3552e-08 
-0.19875 0.000141266 0.0474613 0.0025 1.00011 1.00016 2.50011 0.00499945 120 4 1 3.333e-08 
-0.19625 7.33345e-05 0.0265531 0.0025 1.00006 1.00008 2.50006 0.00499971 121 4 1 1.99027e-08 
-0.19375 3.63031e-05 0.0142037 0.0025 1.00003 1.00004 2.50003 0.00499986 122 4 1 1.13839e-08 
-0.19125 1.70344e-05 0.00723481 0.0025 1.00001 1.00002 2.50001 0.00499993 123 4 1 6.22048e-09 
-0.18875 7.5107e-06 0.00348841 0.0025 1.00001 1.00001 2.50001 0.00499997 124 4 1 3.23469e-09 
-0.18625 3.07103e-06 0.00157829 0.0025 1 1 2.5 0.00499999 125 4 1 1.59179e-09 
-0.18375 1.1397e-06 0.000660943 0.0025 1 1 2.5 0.005 126 4 1 7.35183e-10 
-0.18125 3.69058e-07 0.00025029 0.0025 1 1 2.5 0.005 127 4 1 3.1461e-10 
-0.17875 9.55484e-08 8.19448e-05 0.0025 1 1 2.5 0.005 128 4 1 1.21879e-10 
-0.17625 1.46434e-08 2.0592e-05 0.0025 1 1 2.5 0.005 129 4 1 4.16558e-11 
-0.17375 -1.78659e-09 1.47913e-06 0.0025 1 1 2.5 0.005 130 4 1 1.12345e-11 
-0.17125 8.93633e-10 -2.1925e-06 0.0025 1 1 2.5 0.005 131 5 1 3.51233e-13 
-0.16875 2.34114e-09 -4.98171e-08 0.0025 1 1 2.5 0.005 132 3 1 -1.16762e-12 
-0.16625 1.81807e-09 3.9066e-07 0.0025 1 1 2.5 0.005 133 4 1 -1.40607e-13 
-0.16375 1.05238e-09 3.64594e-07 0.0025 1 1 2.5 0.005 134 4 1 1.37776e-13 
-0.16125 5.04907e-10 2.25713e-07 0.0025 1 1 2.5 0.005 135 4 1 1.53205e-13 
-0.15875 2.04596e-10 1.13099e-07 0.0025 1 1 2.5 0.005 136 4 1 1.01408e-13 
-0.15625 6.82638e-11 4.69108e-08 0.0025 1 1 2.5 0.005 137 4 1 5.24707e-14 
-0.15375 1.69412e-11 1.58124e-08 0.0025 1 1 2.5 0.005 138 4 1 2.23633e-14 
-0.15125 1.91827e-12 3.70881e-09 0.0025 1 1 2.5 0.005 139 4 1 7.89733e-15 
-0.14875 -6.13074e-13 -1.2767e-10 0.0025 1 1 2.5 0.005 140 5 1 1.92593e-15 
-0.14625 2.37399e-13 -3.88695e-10 0.0025 1 1 2.5 0.005 141 4 1 -1.74794e-16 
-0.14375 4.16478e-13 3.50155e-11 0.0025 1 1 2.5 0.005 142 3 1 -2.01439e-16 
-0.14125 2.84216e-13 7.83871e-11 0.0025 1 1 2.5 0.005 143 4 1 8.88178e-18 
-0.13875 1.30638e-13 7.5147e-11 0.0025 1 1 2.5 0.005 144 4 1 2.91323e-17 
-0.13625 5.1795e-14 2.67733e-11 0.0025 1 1 2.5 0.005 145 4 1 2.84217e-17 
-0.13375 6.2324e-15 1.56888e-11 0.0025 1 1 2.5 0.005 146 4 1 1.84741e-17 
-0.13125 -9.57539e-16 -8.52651e-13 0.0025 1 1 2.5 0.005 147 5 1 4.61853e-18 
-0.12875 -1.91497e-16 -2.84217e-13 0.0025 1 1 2.5 0.005 148 5 1 -1.42109e-18 
-0.12625 -3.7766e-47 -5.60519e-44 0.0025 1 1 2.5 0.005 149 5 1 -1.42109e-18 
-0.12375 0 0 0.0025 1 1 2.5 0.005 150 5 1 -1.42109e-18 
-0.12125 0 0 0.0025 1 1 2.5 0.005 151 5 1 -1.42109e-18 
-0.11875 0 0 0.0025 1 1 2.5 0.005 152 5 1 -1.42109e-18 
-0.11625 0 0 0.0025 1 1 2.5 0.005 153 5 1 -1.42109e-18 
-0.11375 0 0 0.0025 1 1 2.5 0.005 154 5 1 -1.42109e-18 
-0.11125 0 0 0.0025 1 1 2.5 0.005 155 5 1 -1.42109e-18 
-0.10875 0 0 0.0025 1 1 2.5 0.005 156 5 1 -1.42109e-18 
-0.10625 -2.36924e-46 -3.36312e-44 0.0025 1 1 2.5 0.005 157 5 1 -1.42109e-18 
-0.10375 -1.39307e-16 -3.36312e-44 0.0025 1 1 2.5 0.005 158 5 1 -1.42109e-18 
-0.10125 -2.78626e-16 3.36312e-44 0.0025 1 1 2.5 0.005 159 5 1 -1.42109e-18 
-0.09875 -4.18258e-16 0 0.0025 1 1 2.5 0.005 160 5 1 -1.42109e-18 
-0.09625 -5.22779e-16 -1.13687e-13 0.0025 1 1 2.5 0.005 161 5 1 -1.42109e-18 
-0.09375 -6.62075e-16 1.13687e-13 0.0025 1 1 2.5 0.005 162 5 1 -1.42109e-18 
-0.09125 -8.36083e-16 -1.12104e-44 0.0025 1 1 2.5 0.005 163 5 1 -1.42109e-18 
-0.08875 -1.07971e-15 -1.13687e-13 0.0025 1 1 2.5 0.005 164 5 1 -1.42109e-18 
-0.08625 -1.35772e-15 1.13687e-13 0.0025 1 1 2.5 0.005 165 5 1 -1.77636e-18 
-0.08375 -1.79215e-15 5.68434e-14 0.0025 1 1 2.5 0.005 166 5 1 -1.06581e-18 
-0.08125 2.09762e-15 -1.13687e-13 0.0025 1 1 2.5 0.005 167 5 1 -2.84217e-18 
-0.07875 2.54877e-16 -3.41061e-13 0.0025 1 1 2.5 0.005 168 5 1 4.61853e-18 
-0.07625 -4.08568e-16 -2.27374e-13 0.0025 1 1 2.5 0.005 169 5 1 -1.06581e-17 
-0.07375 -3.56601e-15 3.58732e-43 0.0025 1 1 2.5 0.005 170 5 1 1.10134e-17 
-0.07125 -2.06278e-15 3.97904e-13 0.0025 1 1 2.5 0.005 171 5 1 -2.13163e-17 
-0.06875 -4.39544e-15 4.54747e-13 0.0025 1 1 2.5 0.005 172 5 1 1.98952e-17 
-0.06625 1.68434e-15 -2.27374e-13 0.0025 1 1 2.5 0.005 173 5 1 -2.4869e-17 
-0.06375 -1.27596e-15 -1.7053e-13 0.0025 1 1 2.5 0.005 174 4 1 1.06581e-17 
-0.06125 -4.44369e-15 -1.13687e-13 0.0025 1 1 2.5 0.005 175 3 1 1.52767e-17 
-0.05875 2.47738e-15 1.81899e-12 0.0025 1 1 2.5 0.005 176 4 1 -1.95399e-17 
-0.05625 -4.01466e-16 -9.66338e-13 0.0025 1 1 2.5 0.005 177 5 1 1.35003e-17 
-0.05375 -1.1987e-15 -5.68434e-13 0.0025 1 1 2.5 0.005 178 4 1 -9.59233e-18 
-0.05125 1.63089e-15 1.7053e-13 0.0025 1 1 2.5 0.005 179 5 1 1.06581e-18 
-0.04875 1.05274e-15 1.13687e-13 0.0025 1 1 2.5 0.005 180 5 1 -4.26326e-18 
-0.04625 1.25065e-15 -7.84727e-44 0.0025 1 1 2.5 0.005 181 5 1 2.46519e-33 
-0.04375 1.93201e-16 2.24208e-44 0.0025 1 1 2.5 0.005 182 5 1 -2.13163e-18 
-0.04125 -4.06818e-16 -1.90577e-43 0.0025 1 1 2.5 0.005 183 5 1 -3.19744e-18 
-0.03875 -3.34382e-15 3.9443e-29 0.0025 1 1 2.5 0.005 184 5 1 4.26326e-18 
-0.03625 -2.61818e-15 1.13687e-13 0.0025 1 1 2.5 0.005 185 5 1 -1.24345e-17 
-0.03375 -4.09742e-15 2.27374e-13 0.0025 1 1 2.5 0.005 186 4 1 -9.59233e-18 
-0.03125 1.03376e-15 -2.84217e-13 0.0025 1 1 2.5 0.005 187 3 1 4.583e-17 
-0.02875 -1.28823e-15 -1.13687e-13 0.0025 1 1 2.5 0.005 188 4 1 -3.58824e-17 
-0.02625 -1.51349e-15 -5.68434e-14 0.0025 1 1 2.5 0.005 189 5 1 9.59233e-18 
-0.02375 -2.18544e-15 -5.68434e-14 0.0025 1 1 2.5 0.005 190 3 1 -2.13163e-18 
-0.02125 -3.69887e-16 1.13687e-13 0.0025 1 1 2.5 0.005 191 4 1 3.55271e-18 
-0.01875 -4.50469e-16 1.13687e-13 0.0025 1 1 2.5 0.005 192 5 1 -4.9738e-18 
-0.01625 -1.76239e-15 3.41061e-13 0.0025 1 1 2.5 0.005 193 4 1 2.22638e-32 
-0.01375 -1.51411e-15 -7.95808e-13 0.0025 1 1 2.5 0.005 194 3 1 3.90799e-18 
-0.01125 -1.49799e-15 3.97904e-13 0.0025 1 1 2.5 0.005 195 4 1 -1.42109e-18 
-0.00875 -1.00166e-15 -1.13687e-13 0.0025 1 1 2.5 0.005 196 4 1 3.77482e-33 
-0.00625 -9.86499e-16 3.41061e-13 0.0025 1 1 2.5 0.005 197 4 1 3.55271e-19 
-0.00375 -1.00431e-15 -2.27374e-13 0.0025 1 1 2.5 0.005 198 4 1 3.77482e-33 
-0.00125 -4.5454e-16 3.41061e-13 0.0025 1 1 2.5 0.005 199 4 1 1.42109e-18 
0.00125 -5.12734e-16 -1.7053e-13 0.0025 1 1 2.5 0.005 200 4 1 3.77482e-33 
0.00375 -3.14937e-16 -3.9443e-29 0.0025 1 1 2.5 0.005 201 4 1 1.2326e-33 
0.00625 -1.77778e-18 -2.27374e-13 0.0025 1 1 2.5 0.005 202 5 1 7.54965e-33 
0.00875 -1.16177e-15 -4.93038e-29 0.0025 1 1 2.5 0.005 203 3 1 0 
0.01125 3.63358e-16 1.13687e-13 0.0025 1 1 2.5 0.005 204 4 1 2.13163e-18 
0.01375 -2.97122e-16 -1.13687e-13 0.0025 1 1 2.5 0.005 205 5 1 -4.26326e-18 
0.01625 -1.13168e-15 -5.68434e-14 0.0025 1 1 2.5 0.005 206 4 1 2.4869e-18 
0.01875 -1.55092e-16 5.68434e-14 0.0025 1 1 2.5 0.005 207 4 1 -5.32907e-18 
0.02125 -7.94886e-16 5.68434e-14 0.0025 1 1 2.5 0.005 208 3 1 6.75016e-18 
0.02375 8.76411e-17 1.41995e-27 0.0025 1 1 2.5 0.005 209 3 1 1.06581e-18 
0.02625 1.22213e-15 1.13687e-13 0.0025 1 1 2.5 0.005 210 4 1 -1.77636e-18 
0.02875 4.13501e-16 1.13687e-13 0.0025 1 1 2.5 0.005 211 4 1 -4.26326e-18 
0.03125 2.9034e-15 3.41061e-13 0.0025 1 1 2.5 0.005 212 3 1 3.19744e-18 
0.03375 2.48049e-15 1.13687e-13 0.0025 1 1 2.5 0.005 213 4 1 1.03029e-17 
0.03625 1.69871e-15 -1.13687e-13 0.0025 1 1 2.5 0.005 214 5 1 -1.77636e-17 
0.03875 7.38813e-16 -1.13687e-13 0.0025 1 1 2.5 0.005 215 4 1 1.74083e-17 
0.04125 8.43405e-16 1.45939e-27 0.0025 1 1 2.5 0.005 216 4 1 -1.35003e-17 
0.04375 3.74628e-16 -5.68434e-14 0.0025 1 1 2.5 0.005 217 4 1 -3.90799e-18 
0.04625 4.42657e-15 5.68434e-14 0.0025 1 1 2.5 0.005 218 4 1 6.03961e-18 
0.04875 1.74184e-15 5.68434e-14 0.0025 1 1 2.5 0.005 219 5 1 -2.84217e-18 
0.05125 4.82242e-15 -2.27374e-13 0.0025 1 1 2.5 0.005 220 5 1 -1.42109e-18 
0.05375 4.24252e-15 1.13687e-13 0.0025 1 1 2.5 0.005 221 4 1 -2.13163e-18 
0.05625 3.91974e-15 8.52651e-13 0.0025 1 1 2.5 0.005 222 5 1 1.95399e-17 
0.05875 1.34054e-15 -1.81899e-12 0.0025 1 1 2.5 0.005 223 5 1 -5.40012e-17 
0.06125 3.64176e-15 1.36424e-12 0.0025 1 1 2.5 0.005 224 3 1 3.90799e-17 
0.06375 6.37171e-15 -3.41061e-13 0.0025 1 1 2.5 0.005 225 3 1 1.38556e-17 
0.06625 1.70076e-15 1.49193e-26 0.0025 1 1 2.5 0.005 226 5 1 -2.91323e-17 
0.06875 7.14306e-15 -5.68434e-14 0.0025 1 1 2.5 0.005 227 5 1 1.95399e-17 
0.07125 3.76153e-15 -1.13687e-13 0.0025 1 1 2.5 0.005 228 5 1 -1.66978e-17 
0.07375 4.7376e-15 -7.84727e-44 0.0025 1 1 2.5 0.005 229 5 1 9.59233e-18 
0.07625 4.52885e-15 3.36312e-44 0.0025 1 1 2.5 0.005 230 5 1 -1.35003e-17 
0.07875 5.49412e-15 5.68434e-14 0.0025 1 1 2.5 0.005 231 5 1 8.88178e-18 
0.08125 4.86594e-15 -1.13687e-13 0.0025 1 1 2.5 0.005 232 5 1 -1.06581e-17 
0.08375 4.30536e-15 1.13687e-13 0.0025 1 1 2.5 0.005 233 5 1 4.61853e-18 
0.08625 1.49594e-15 2.27374e-13 0.0025 1 1 2.5 0.005 234 5 1 -4.26326e-18 
0.08875 1.11987e-15 -5.68434e-14 0.0025 1 1 2.5 0.005 235 5 1 -3.55271e-19 
