# Time [s]: 0.208957
# Columns: pos [m], vel [m/s], acc [m/s^2], mass [kg], dens [kg/m^3], pres [Pa], ene [J/kg], sml [m], id, neighbor, alpha, gradh, ...additional?
1.36158 -0.673172 0.00162949 0.0025 0.511003 0.43267 2.15242 0.00978469 0 4 1 -0.000134227 
1.36636 -0.67318 0.00176845 0.0025 0.536854 0.42613 1.94996 0.00931352 1 4 1 0.000179243 
1.3709 -0.673188 0.00191094 0.0025 0.548179 0.430794 1.96842 0.00912111 2 3 1 -1.90589e-05 
1.37548 -0.673198 0.002063 0.0025 0.54591 0.429125 1.96455 0.00915902 3 5 1 3.48625e-06 
1.38006 -0.673208 0.00221892 0.0025 0.546303 0.429275 1.96448 0.00915243 4 4 1 -1.39075e-07 
1.38464 -0.673218 0.00237627 0.0025 0.546309 0.42924 1.96424 0.00915233 5 4 1 1.43273e-07 
1.38921 -0.67323 0.00253443 0.0025 0.546326 0.429233 1.96418 0.00915204 6 4 1 -3.9826e-09 
1.39379 -0.673243 0.00269456 0.0025 0.546334 0.429223 1.96411 0.00915192 7 4 1 7.73821e-09 
1.39836 -0.673257 0.00286474 0.0025 0.546342 0.429216 1.96404 0.00915178 8 4 1 4.22231e-09 
1.40294 -0.673273 0.00306727 0.0025 0.546347 0.429208 1.96399 0.00915169 9 4 1 4.82933e-09 
1.40752 -0.67329 0.00333425 0.0025 0.546351 0.429199 1.96394 0.00915162 10 4 1 -3.06496e-09 
1.41209 -0.673309 0.00368741 0.0025 0.546354 0.42919 1.96388 0.00915157 11 4 1 3.67639e-09 
1.41667 -0.673329 0.00412223 0.0025 0.546355 0.42918 1.96383 0.00915155 12 3 1 1.57855e-09 
1.42124 -0.673351 0.00461793 0.0025 0.546354 0.429168 1.96378 0.00915157 13 4 1 2.11592e-09 
1.42582 -0.673375 0.00516079 0.0025 0.546351 0.429155 1.96373 0.00915163 14 4 1 5.08994e-10 
1.43039 -0.6734 0.00574775 0.0025 0.546346 0.429141 1.96369 0.00915171 15 4 1 -3.33355e-09 
1.43497 -0.673428 0.00637152 0.0025 0.546339 0.429125 1.96364 0.00915183 16 4 1 3.02015e-09 
1.43955 -0.673458 0.00702878 0.0025 0.546329 0.429108 1.96359 0.00915199 17 4 1 -5.53149e-10 
1.44412 -0.673492 0.00776149 0.0025 0.546318 0.429088 1.96355 0.00915219 18 4 1 -3.50959e-09 
1.4487 -0.673529 0.00866773 0.0025 0.546304 0.429066 1.9635 0.00915242 19 4 1 -1.15502e-10 
1.45327 -0.673571 0.00982263 0.0025 0.546287 0.429042 1.96345 0.0091527 20 4 1 -2.26707e-09 
1.45785 -0.673616 0.0111645 0.0025 0.546267 0.429014 1.96339 0.00915304 21 4 1 -2.69841e-09 
1.46243 -0.673666 0.0125006 0.0025 0.546243 0.428983 1.96333 0.00915344 22 4 1 -2.91699e-09 
1.467 -0.673722 0.0137163 0.0025 0.546215 0.428948 1.96327 0.0091539 23 4 1 -4.12074e-09 
1.47158 -0.673788 0.0150231 0.0025 0.546184 0.428909 1.96321 0.00915442 24 4 1 -3.00913e-09 
1.47616 -0.673862 0.0168916 0.0025 0.546149 0.428866 1.96314 0.00915501 25 4 1 -5.23286e-09 
1.48074 -0.673946 0.0195719 0.0025 0.546108 0.428818 1.96306 0.0091557 26 4 1 -8.16969e-09 
1.48531 -0.674039 0.022715 0.0025 0.546061 0.428762 1.96298 0.00915649 27 4 1 -7.62845e-09 
1.48989 -0.674143 0.0256973 0.0025 0.546005 0.428698 1.96288 0.00915742 28 4 1 -7.83352e-09 
1.49447 -0.67426 0.0283571 0.0025 0.545942 0.428625 1.96278 0.00915848 29 4 1 -9.06948e-09 
1.49905 -0.674397 0.031258 0.0025 0.545872 0.428545 1.96266 0.00915965 30 4 1 -8.48785e-09 
-0.496368 -0.674554 0.0352451 0.0025 0.545794 0.428456 1.96254 0.00916097 31 4 1 -8.99644e-09 
-0.491787 -0.674727 0.0404912 0.0025 0.545706 0.428357 1.9624 0.00916244 32 4 1 -1.3033e-08 
-0.487206 -0.674914 0.045526 0.0025 0.545608 0.428246 1.96225 0.0091641 33 4 1 -1.01691e-08 
-0.482623 -0.675114 0.0483688 0.0025 0.545501 0.428127 1.96208 0.00916589 34 4 1 -1.71898e-10 
-0.47804 -0.675328 0.0491867 0.0025 0.545392 0.428005 1.96192 0.00916772 35 4 1 5.56705e-09 
-0.473455 -0.675544 0.0483284 0.0025 0.545286 0.427888 1.96175 0.00916949 36 4 1 1.5655e-08 
-0.46887 -0.675743 0.0428423 0.0025 0.545195 0.427785 1.96161 0.00917104 37 4 1 2.60462e-08 
-0.464284 -0.6759 0.0344191 0.0025 0.545123 0.427705 1.9615 0.00917224 38 4 1 4.6273e-08 
-0.459698 -0.676025 0.0203299 0.0025 0.54509 0.427669 1.96144 0.0091728 39 5 1 9.54866e-08 
-0.455112 -0.675913 -0.0392188 0.0025 0.545135 0.427716 1.9615 0.00917204 40 4 1 6.6696e-08 
-0.450526 -0.675812 -0.000929373 0.0025 0.545239 0.427838 1.96164 0.0091703 41 4 1 3.24532e-07 
-0.445941 -0.675369 -0.230461 0.0025 0.54561 0.428269 1.96217 0.00916405 42 4 1 9.88026e-07 
-0.441362 -0.673308 -0.7177 0.0025 0.546736 0.429514 1.96378 0.00914517 43 4 1 1.33798e-06 
-0.436796 -0.669254 -1.10655 0.0025 0.548785 0.431758 1.96671 0.00911104 44 4 1 1.25764e-06 
-0.432251 -0.663971 -1.33067 0.0025 0.551565 0.434823 1.97069 0.00906512 45 4 1 1.50976e-06 
-0.427731 -0.657474 -1.71485 0.0025 0.555094 0.43874 1.97571 0.00900749 46 4 1 2.35103e-06 
-0.423243 -0.648842 -2.32647 0.0025 0.55971 0.443866 1.98226 0.0089332 47 4 1 3.17208e-06 
-0.418798 -0.637723 -2.93564 0.0025 0.565603 0.450421 1.99059 0.00884012 48 4 1 3.68138e-06 
-0.414403 -0.624406 -3.47173 0.0025 0.572681 0.458319 2.00051 0.00873086 49 4 1 3.77641e-06 
-0.410066 -0.609581 -3.78969 0.0025 0.580639 0.46724 2.01159 0.0086112 50 4 1 3.47681e-06 
-0.405791 -0.594121 -3.90945 0.0025 0.589058 0.476736 2.0232 0.00848813 51 4 1 3.14216e-06 
-0.401578 -0.578623 -3.95056 0.0025 0.597635 0.486471 2.03493 0.00836631 52 4 1 2.77454e-06 
-0.397424 -0.563376 -3.88413 0.0025 0.60616 0.496204 2.04649 0.00824865 53 4 1 2.40364e-06 
-0.393329 -0.548756 -3.78177 0.0025 0.614481 0.505762 2.05767 0.00813694 54 4 1 2.13828e-06 
-0.389287 -0.534734 -3.6715 0.0025 0.622547 0.515076 2.06843 0.00803153 55 4 1 1.92694e-06 
-0.385297 -0.521334 -3.55305 0.0025 0.630344 0.524132 2.07875 0.00793217 56 4 1 1.83582e-06 
-0.381355 -0.508529 -3.48545 0.0025 0.637927 0.532984 2.08871 0.00783789 57 4 1 1.92856e-06 
-0.377459 -0.495917 -3.50865 0.0025 0.645431 0.541788 2.0985 0.00774676 58 4 1 2.105e-06 
-0.373608 -0.483335 -3.59055 0.0025 0.653007 0.550718 2.10831 0.00765689 59 4 1 2.34192e-06 
-0.369801 -0.470471 -3.75737 0.0025 0.660792 0.559935 2.11832 0.00756668 60 4 1 2.54001e-06 
-0.366041 -0.457223 -3.92331 0.0025 0.668866 0.569536 2.12864 0.00747534 61 4 1 2.64134e-06 
-0.362326 -0.44362 -4.08188 0.0025 0.677226 0.579524 2.13923 0.00738306 62 4 1 2.66892e-06 
-0.358657 -0.429746 -4.20055 0.0025 0.685826 0.589848 2.15006 0.00729048 63 4 1 2.62589e-06 
-0.355035 -0.415789 -4.28264 0.0025 0.694593 0.600428 2.16101 0.00719846 64 4 1 2.58391e-06 
-0.351458 -0.401765 -4.35654 0.0025 0.703477 0.611204 2.17202 0.00710755 65 4 1 2.50937e-06 
-0.347927 -0.387771 -4.38905 0.0025 0.712426 0.622112 2.18302 0.00701827 66 4 1 2.38393e-06 
-0.34444 -0.373965 -4.38561 0.0025 0.721374 0.633077 2.19395 0.00693122 67 4 1 2.35464e-06 
-0.340996 -0.360281 -4.43535 0.0025 0.730325 0.6441 2.20479 0.00684627 68 4 1 2.28674e-06 
-0.337593 -0.346734 -4.42326 0.0025 0.739269 0.655167 2.21555 0.00676344 69 4 1 2.2238e-06 
-0.334232 -0.333357 -4.45546 0.0025 0.748191 0.666262 2.2262 0.00668279 70 4 1 2.16027e-06 
-0.33091 -0.320144 -4.43944 0.0025 0.757086 0.677377 2.23675 0.00660427 71 4 1 2.0775e-06 
-0.327627 -0.307136 -4.44172 0.0025 0.765936 0.688487 2.24717 0.00652796 72 4 1 2.07174e-06 
-0.324382 -0.294269 -4.47044 0.0025 0.77477 0.699628 2.2575 0.00645353 73 4 1 2.0201e-06 
-0.321174 -0.281523 -4.46848 0.0025 0.783587 0.710798 2.26774 0.00638092 74 4 1 1.96359e-06 
-0.318001 -0.26894 -4.48197 0.0025 0.792376 0.721984 2.27787 0.00631013 75 4 1 1.91105e-06 
-0.314863 -0.256523 -4.47559 0.0025 0.801135 0.73318 2.28791 0.00624114 76 4 1 1.85443e-06 
-0.31176 -0.244299 -4.47743 0.0025 0.809856 0.744377 2.29784 0.00617394 77 4 1 1.83781e-06 
-0.308689 -0.232198 -4.4973 0.0025 0.818556 0.755596 2.30768 0.00610831 78 4 1 1.78791e-06 
-0.305651 -0.220189 -4.49097 0.0025 0.827233 0.766832 2.31743 0.00604425 79 4 1 1.76461e-06 
-0.302645 -0.208297 -4.52357 0.0025 0.835893 0.778092 2.3271 0.00598163 80 4 1 1.69021e-06 
-0.299669 -0.19658 -4.48474 0.0025 0.844513 0.789347 2.33667 0.00592057 81 4 1 1.62369e-06 
-0.296724 -0.185039 -4.48595 0.0025 0.853074 0.800572 2.34611 0.00586116 82 4 1 1.62179e-06 
-0.293808 -0.173603 -4.49431 0.0025 0.861608 0.811807 2.35547 0.0058031 83 4 1 1.62171e-06 
-0.290921 -0.162318 -4.52731 0.0025 0.87014 0.823082 2.36477 0.0057462 84 4 1 1.58394e-06 
-0.288062 -0.151043 -4.52709 0.0025 0.878663 0.834389 2.374 0.00569046 85 4 1 1.52334e-06 
-0.28523 -0.139942 -4.52776 0.0025 0.887152 0.845694 2.38315 0.00563601 86 4 1 1.43758e-06 
-0.282426 -0.129036 -4.47617 0.0025 0.895571 0.85695 2.39217 0.00558303 87 4 1 1.40334e-06 
-0.279647 -0.11825 -4.48349 0.0025 0.903926 0.868163 2.40107 0.00553143 88 4 1 1.38313e-06 
-0.276894 -0.107697 -4.45446 0.0025 0.912237 0.879361 2.40987 0.00548103 89 4 1 1.46476e-06 
-0.274166 -0.0970546 -4.57604 0.0025 0.920581 0.890641 2.41866 0.00543135 90 4 1 1.38502e-06 
-0.271463 -0.086572 -4.50108 0.0025 0.928922 0.901958 2.42741 0.00538258 91 4 1 1.37018e-06 
-0.268783 -0.0761023 -4.60917 0.0025 0.937235 0.913266 2.43608 0.00533484 92 4 1 9.31263e-07 
-0.266128 -0.066077 -4.10728 0.0025 0.945265 0.924237 2.44439 0.00528952 93 4 1 1.08431e-06 
-0.263494 -0.0567279 -4.44082 0.0025 0.953147 0.935081 2.45252 0.00524578 94 4 1 1.89281e-06 
-0.260882 -0.046078 -4.98118 0.0025 0.961502 0.94654 2.46113 0.0052002 95 4 1 5.96651e-07 
-0.258293 -0.0362247 -3.77329 0.0025 0.969394 0.957394 2.46918 0.00515786 96 4 1 -5.22867e-08 
-0.255724 -0.028579 -3.47667 0.0025 0.976366 0.967126 2.4762 0.00512103 97 4 1 2.32188e-06 
-0.253172 -0.0191352 -5.42496 0.0025 0.984334 0.97824 2.4843 0.00507958 98 4 1 2.90134e-06 
-0.250644 -0.00684612 -5.83092 0.0025 0.993586 0.990996 2.49372 0.00503228 99 4 1 -1.57265e-06 
-0.24814 0.00204674 -2.15411 0.0025 1.00058 1.00066 2.50069 0.00499711 100 4 1 -3.26983e-06 
-0.245647 0.00416193 -0.307166 0.0025 1.00402 1.00568 2.50395 0.00497999 101 4 1 2.54394e-06 
-0.24316 0.00926929 -5.08814 0.0025 1.00924 1.01318 2.50918 0.00495424 102 4 1 5.72689e-06 
-0.240693 0.022849 -7.18078 0.0025 1.01865 1.02619 2.51872 0.00490844 103 4 1 -1.86767e-06 
-0.238251 0.0321627 -1.80773 0.0025 1.02578 1.03605 2.52576 0.00487435 104 4 1 -5.11257e-06 
-0.235818 0.0327042 0.537777 0.0025 1.02714 1.0381 2.527 0.00486787 105 3 1 -2.03192e-06 
-0.233383 0.0309422 1.05942 0.0025 1.02581 1.03631 2.52566 0.0048742 106 4 1 -4.32745e-07 
-0.230944 0.0286416 1.16306 0.0025 1.02385 1.03355 2.52372 0.00488355 107 4 1 -1.19801e-07 
-0.2285 0.0261295 1.24615 0.0025 1.02164 1.03044 2.52154 0.00489407 108 4 1 -8.16027e-08 
-0.22605 0.0233903 1.35971 0.0025 1.01925 1.02705 2.51917 0.00490559 109 4 1 -5.27549e-08 
-0.223594 0.0204109 1.47331 0.0025 1.01667 1.02343 2.51662 0.00491801 110 4 1 2.85424e-08 
-0.221132 0.0172636 1.53865 0.0025 1.014 1.01966 2.51396 0.00493098 111 4 1 1.48503e-07 
-0.218663 0.0140974 1.52226 0.0025 1.01135 1.01594 2.51133 0.00494388 112 4 1 2.68513e-07 
-0.216188 0.0110909 1.41791 0.0025 1.00888 1.01247 2.50886 0.004956 113 4 1 3.54449e-07 
-0.213707 0.00840065 1.24355 0.0025 1.00669 1.0094 2.50668 0.00496677 114 4 1 3.90594e-07 
-0.211221 0.00612784 1.03015 0.0025 1.00486 1.00683 2.50485 0.00497582 115 4 1 3.80066e-07 
-0.208731 0.00430818 0.809491 0.0025 1.00341 1.00479 2.5034 0.00498303 116 4 1 3.36998e-07 
-0.206238 0.00292193 0.605992 0.0025 1.0023 1.00324 2.5023 0.00498851 117 4 1 2.77826e-07 
-0.203743 0.00191317 0.433806 0.0025 1.00151 1.00212 2.5015 0.00499248 118 4 1 2.1584e-07 
-0.201246 0.00120979 0.29783 0.0025 1.00095 1.00134 2.50095 0.00499525 119 4 1 1.59425e-07 
-0.198748 0.000738744 0.196494 0.0025 1.00058 1.00082 2.50058 0.0049971 120 4 1 1.12586e-07 
-0.196249 0.000435331 0.12471 0.0025 1.00034 1.00048 2.50034 0.00499829 121 4 1 7.62671e-08 
-0.193749 0.000247251 0.0761566 0.0025 1.00019 1.00027 2.50019 0.00499903 122 4 1 4.96377e-08 
-0.19125 0.000135081 0.0447174 0.0025 1.00011 1.00015 2.50011 0.00499947 123 4 1 3.10502e-08 
-0.18875 7.07888e-05 0.0252084 0.0025 1.00006 1.00008 2.50006 0.00499972 124 4 1 1.86568e-08 
-0.18625 3.54453e-05 0.0136092 0.0025 1.00003 1.00004 2.50003 0.00499986 125 4 1 1.07519e-08 
-0.18375 1.68661e-05 0.00701032 0.0025 1.00001 1.00002 2.50001 0.00499993 126 4 1 5.92902e-09 
-0.18125 7.56784e-06 0.00342738 0.0025 1.00001 1.00001 2.50001 0.00499997 127 4 1 3.11754e-09 
-0.17875 3.16544e-06 0.00157811 0.0025 1 1 2.5 0.00499999 128 4 1 1.55525e-09 
-0.17625 1.21188e-06 0.000676263 0.0025 1 1 2.5 0.005 129 4 1 7.30771e-10 
-0.17375 4.11251e-07 0.000264527 0.0025 1 1 2.5 0.005 130 4 1 3.19808e-10 
-0.17125 1.15784e-07 9.10429e-05 0.0025 1 1 2.5 0.005 131 4 1 1.27992e-10 
-0.16875 2.23843e-08 2.53491e-05 0.0025 1 1 2.5 0.005 132 4 1 4.53896e-11 
-0.16625 9.07439e-11 4.45278e-06 0.0025 1 1 2.5 0.005 133 4 1 1.36377e-11 
-0.16375 -2.89474e-10 -2.19353e-06 0.0025 1 1 2.5 0.005 134 5 1 1.97638e-12 
-0.16125 1.75833e-09 -3.57162e-07 0.0025 1 1 2.5 0.005 135 3 1 -1.08119e-12 
-0.15875 1.59291e-09 2.52233e-07 0.0025 1 1 2.5 0.005 136 4 1 -2.68304e-13 
-0.15625 9.96005e-10 3.05134e-07 0.0025 1 1 2.5 0.005 137 4 1 6.82469e-14 
-0.15375 5.07142e-10 2.09825e-07 0.0025 1 1 2.5 0.005 138 4 1 1.25189e-13 
-0.15125 2.18445e-10 1.11727e-07 0.0025 1 1 2.5 0.005 139 4 1 9.21983e-14 
-0.14875 7.8867e-11 4.96991e-08 0.0025 1 1 2.5 0.005 140 4 1 5.13467e-14 
-0.14625 2.2429e-11 1.81937e-08 0.0025 1 1 2.5 0.005 141 4 1 2.34778e-14 
-0.14375 3.95718e-12 5.07617e-09 0.0025 1 1 2.5 0.005 142 4 1 8.90594e-15 
-0.14125 -2.66864e-13 6.8701e-10 0.0025 1 1 2.5 0.005 143 4 1 2.61515e-15 
-0.13875 -5.96233e-14 -4.67139e-10 0.0025 1 1 2.5 0.005 144 5 1 2.67875e-16 
-0.13625 3.2048e-13 -4.03588e-11 0.0025 1 1 2.5 0.005 145 3 1 -2.3519e-16 
-0.13375 2.56232e-13 6.01403e-11 0.0025 1 1 2.5 0.005 146 4 1 -4.61853e-17 
-0.13125 1.31344e-13 6.3892e-11 0.0025 1 1 2.5 0.005 147 4 1 3.73035e-17 
-0.12875 5.27378e-14 2.38742e-11 0.0025 1 1 2.5 0.005 148 4 1 2.16716e-17 
-0.12625 1.4982e-14 1.81331e-11 0.0025 1 1 2.5 0.005 149 4 1 1.45661e-17 
-0.12375 -5.92157e-16 1.47793e-12 0.0025 1 1 2.5 0.005 150 5 1 7.81597e-18 
-0.12125 -3.13202e-16 -4.54747e-13 0.0025 1 1 2.5 0.005 151 5 1 -1.42109e-18 
-0.11875 -5.49076e-47 -6.72623e-44 0.0025 1 1 2.5 0.005 152 5 1 -1.42109e-18 
-0.11625 0 0 0.0025 1 1 2.5 0.005 153 5 1 -1.42109e-18 
-0.11375 0 0 0.0025 1 1 2.5 0.005 154 5 1 -1.42109e-18 
-0.11125 0 0 0.0025 1 1 2.5 0.005 155 5 1 -1.42109e-18 
-0.10875 -1.02909e-47 -3.36312e-44 0.0025 1 1 2.5 0.005 156 5 1 -1.42109e-18 
-0.10625 -3.47872e-17 -1.13687e-13 0.0025 1 1 2.5 0.005 157 5 1 -1.42109e-18 
-0.10375 -1.74135e-16 1.13687e-13 0.0025 1 1 2.5 0.005 158 5 1 -1.42109e-18 
-0.10125 -3.13443e-16 -1.13687e-13 0.0025 1 1 2.5 0.005 159 5 1 -1.42109e-18 
-0.09875 -4.53062e-16 1.13687e-13 0.0025 1 1 2.5 0.005 160 5 1 -1.42109e-18 
-0.09625 -5.9243e-16 -1.13687e-13 0.0025 1 1 2.5 0.005 161 5 1 -1.42109e-18 
-0.09375 -7.31719e-16 1.13687e-13 0.0025 1 1 2.5 0.005 162 5 1 -1.42109e-18 
-0.09125 -8.70898e-16 -1.13687e-13 0.0025 1 1 2.5 0.005 163 5 1 -1.42109e-18 
-0.08875 -1.07971e-15 1.13687e-13 0.0025 1 1 2.5 0.005 164 5 1 -1.42109e-18 
-0.08625 -1.28807e-15 -1.13687e-13 0.0025 1 1 2.5 0.005 165 5 1 -1.77636e-18 
-0.08375 -1.75733e-15 5.68434e-14 0.0025 1 1 2.5 0.005 166 5 1 -7.10543e-19 
-0.08125 1.67986e-15 -1.13687e-13 0.0025 1 1 2.5 0.005 167 5 1 -3.55271e-18 
-0.07875 -1.12045e-15 -5.68434e-14 0.0025 1 1 2.5 0.005 168 5 1 6.03961e-18 
-0.07625 -1.36604e-15 -1.7053e-13 0.0025 1 1 2.5 0.005 169 5 1 -1.35003e-17 
-0.07375 -3.40929e-15 -5.68434e-14 0.0025 1 1 2.5 0.005 170 5 1 1.27898e-17 
-0.07125 4.96201e-16 4.54747e-13 0.0025 1 1 2.5 0.005 171 5 1 -2.13163e-17 
-0.06875 -1.26187e-15 2.27374e-13 0.0025 1 1 2.5 0.005 172 5 1 2.16716e-17 
-0.06625 -1.90177e-15 -4.54747e-13 0.0025 1 1 2.5 0.005 173 5 1 -2.27374e-17 
-0.06375 4.67823e-17 7.38964e-13 0.0025 1 1 2.5 0.005 174 4 1 -2.4869e-18 
-0.06125 -1.57146e-15 6.25278e-13 0.0025 1 1 2.5 0.005 175 3 1 3.05533e-17 
-0.05875 2.63482e-15 -9.66338e-13 0.0025 1 1 2.5 0.005 176 4 1 -1.81188e-17 
-0.05625 -1.81176e-15 -3.9443e-29 0.0025 1 1 2.5 0.005 177 5 1 -1.77636e-18 
-0.05375 -1.28608e-15 5.11591e-13 0.0025 1 1 2.5 0.005 178 4 1 3.55271e-19 
-0.05125 1.24808e-15 -3.97904e-13 0.0025 1 1 2.5 0.005 179 5 1 -7.10543e-19 
-0.04875 1.60985e-15 -8.96831e-44 0.0025 1 1 2.5 0.005 180 5 1 -4.26326e-18 
-0.04625 1.35506e-15 1.13687e-13 0.0025 1 1 2.5 0.005 181 5 1 2.46519e-33 
-0.04375 -1.20105e-16 -1.13687e-13 0.0025 1 1 2.5 0.005 182 5 1 -7.10543e-19 
-0.04125 -3.89437e-16 5.68434e-14 0.0025 1 1 2.5 0.005 183 5 1 -6.39488e-18 
-0.03875 -2.99575e-15 2.27374e-13 0.0025 1 1 2.5 0.005 184 5 1 6.39488e-18 
-0.03625 -1.50402e-15 1.13687e-13 0.0025 1 1 2.5 0.005 185 5 1 -1.38556e-17 
-0.03375 -3.0877e-15 1.13687e-13 0.0025 1 1 2.5 0.005 186 4 1 -7.81597e-18 
-0.03125 -4.11167e-16 -1.13687e-13 0.0025 1 1 2.5 0.005 187 3 1 4.36984e-17 
-0.02875 -2.07165e-15 -5.68434e-14 0.0025 1 1 2.5 0.005 188 4 1 -3.41061e-17 
-0.02625 -2.17497e-15 -1.7053e-13 0.0025 1 1 2.5 0.005 189 5 1 9.23706e-18 
-0.02375 -2.53355e-15 -1.7053e-13 0.0025 1 1 2.5 0.005 190 3 1 -2.13163e-18 
-0.02125 -5.43854e-16 -1.13687e-13 0.0025 1 1 2.5 0.005 191 4 1 3.55271e-18 
-0.01875 -1.52968e-15 -1.13687e-13 0.0025 1 1 2.5 0.005 192 5 1 -6.75016e-18 
-0.01625 -1.58851e-15 -1.13687e-13 0.0025 1 1 2.5 0.005 193 3 1 0 
-0.01375 -7.48148e-16 5.68434e-13 0.0025 1 1 2.5 0.005 194 3 1 3.55271e-18 
-0.01125 -1.51545e-15 -3.41061e-13 0.0025 1 1 2.5 0.005 195 4 1 -3.19744e-18 
-0.00875 -4.44633e-16 5.68434e-13 0.0025 1 1 2.5 0.005 196 4 1 6.24001e-33 
-0.00625 -5.51344e-16 -5.68434e-14 0.0025 1 1 2.5 0.005 197 5 1 -1.06581e-18 
-0.00375 -5.34129e-16 -5.68434e-14 0.0025 1 1 2.5 0.005 198 3 1 3.55271e-19 
-0.00125 -5.06753e-16 -1.7053e-13 0.0025 1 1 2.5 0.005 199 3 1 0 
0.00125 -5.99769e-16 1.13687e-13 0.0025 1 1 2.5 0.005 200 3 1 3.55271e-19 
0.00375 -4.71638e-16 -2.84217e-13 0.0025 1 1 2.5 0.005 201 3 1 0 
0.00625 -6.98139e-16 3.41061e-13 0.0025 1 1 2.5 0.005 202 5 1 1.42109e-18 
0.00875 -1.56205e-15 -5.11591e-13 0.0025 1 1 2.5 0.005 203 4 1 -7.10543e-19 
0.01125 2.06729e-16 -5.68434e-14 0.0025 1 1 2.5 0.005 204 3 1 2.13163e-18 
0.01375 -4.53841e-16 -5.68434e-14 0.0025 1 1 2.5 0.005 205 5 1 -4.26326e-18 
0.01625 -1.34059e-15 5.68434e-14 0.0025 1 1 2.5 0.005 206 4 1 2.4869e-18 
0.01875 1.58255e-16 5.68434e-14 0.0025 1 1 2.5 0.005 207 4 1 -5.32907e-18 
0.02125 -4.81539e-16 5.68434e-14 0.0025 1 1 2.5 0.005 208 3 1 6.75016e-18 
0.02375 -1.03839e-16 -5.68434e-14 0.0025 1 1 2.5 0.005 209 3 1 1.06581e-18 
0.02625 2.16214e-15 2.27374e-13 0.0025 1 1 2.5 0.005 210 4 1 -2.13163e-18 
0.02875 1.35356e-15 1.13687e-13 0.0025 1 1 2.5 0.005 211 4 1 -3.55271e-18 
0.03125 4.01758e-15 1.13687e-13 0.0025 1 1 2.5 0.005 212 3 1 1.77636e-18 
0.03375 3.17677e-15 2.27374e-13 0.0025 1 1 2.5 0.005 213 4 1 9.9476e-18 
0.03625 1.95982e-15 5.68434e-14 0.0025 1 1 2.5 0.005 214 5 1 -1.84741e-17 
0.03875 6.34339e-16 3.9443e-29 0.0025 1 1 2.5 0.005 215 4 1 1.81188e-17 
0.04125 1.22634e-15 1.13687e-13 0.0025 1 1 2.5 0.005 216 4 1 -1.52767e-17 
0.04375 2.52737e-16 -1.45939e-27 0.0025 1 1 2.5 0.005 217 4 1 -3.55271e-19 
0.04625 3.78255e-15 -2.27374e-13 0.0025 1 1 2.5 0.005 218 4 1 4.26326e-18 
0.04875 1.70707e-15 -5.68434e-14 0.0025 1 1 2.5 0.005 219 5 1 -2.84217e-18 
0.05125 3.95206e-15 -3.41061e-13 0.0025 1 1 2.5 0.005 220 4 1 -2.13163e-18 
0.05375 3.78938e-15 2.16005e-12 0.0025 1 1 2.5 0.005 221 4 1 3.55271e-18 
0.05625 4.51266e-15 -3.80851e-12 0.0025 1 1 2.5 0.005 222 5 1 1.59872e-17 
0.05875 4.75149e-15 2.72848e-12 0.0025 1 1 2.5 0.005 223 5 1 -6.14619e-17 
0.06125 -1.63219e-15 -1.3074e-12 0.0025 1 1 2.5 0.005 224 4 1 5.40012e-17 
0.06375 8.09501e-15 2.84217e-13 0.0025 1 1 2.5 0.005 225 3 1 4.61853e-18 
0.06625 2.65802e-15 3.97904e-13 0.0025 1 1 2.5 0.005 226 5 1 -2.77112e-17 
0.06875 6.46412e-15 -3.9443e-29 0.0025 1 1 2.5 0.005 227 5 1 1.88294e-17 
0.07125 3.10005e-15 -2.27374e-13 0.0025 1 1 2.5 0.005 228 5 1 -1.49214e-17 
0.07375 4.70281e-15 -1.13687e-13 0.0025 1 1 2.5 0.005 229 5 1 8.88178e-18 
0.07625 4.56363e-15 1.13687e-13 0.0025 1 1 2.5 0.005 230 5 1 -1.35003e-17 
0.07875 5.87711e-15 5.68434e-14 0.0025 1 1 2.5 0.005 231 5 1 8.88178e-18 
0.08125 4.76147e-15 3.36312e-44 0.0025 1 1 2.5 0.005 232 5 1 -1.03029e-17 
0.08375 4.51424e-15 -1.79366e-43 0.0025 1 1 2.5 0.005 233 5 1 4.61853e-18 
