# Time [s]: 0.206508
# Columns: pos [m], vel [m/s], acc [m/s^2], mass [kg], dens [kg/m^3], pres [Pa], ene [J/kg], sml [m], id, neighbor, alpha, gradh, ...additional?
1.36323 -0.673176 0.00169692 0.0025 0.511 0.432667 2.15242 0.00978473 0 4 1 -0.000134227 
1.36801 -0.673185 0.00184196 0.0025 0.536852 0.426127 1.94996 0.00931356 1 4 1 0.000179242 
1.37255 -0.673193 0.00199256 0.0025 0.548176 0.430792 1.96841 0.00912115 2 3 1 -1.90589e-05 
1.37713 -0.673203 0.00215677 0.0025 0.545907 0.429122 1.96455 0.00915907 3 5 1 3.48627e-06 
1.38171 -0.673213 0.00232879 0.0025 0.5463 0.429272 1.96448 0.00915248 4 4 1 -1.39118e-07 
1.38628 -0.673224 0.00250507 0.0025 0.546306 0.429236 1.96424 0.00915239 5 4 1 1.43219e-07 
1.39086 -0.673236 0.00268461 0.0025 0.546323 0.429229 1.96417 0.0091521 6 4 1 -4.04314e-09 
1.39544 -0.67325 0.00286754 0.0025 0.54633 0.429219 1.9641 0.00915198 7 4 1 7.67625e-09 
1.40001 -0.673264 0.00305616 0.0025 0.546337 0.429211 1.96404 0.00915186 8 4 1 4.17415e-09 
1.40459 -0.673281 0.00326373 0.0025 0.546342 0.429202 1.96398 0.00915177 9 4 1 4.81187e-09 
1.40916 -0.673299 0.0035207 0.0025 0.546346 0.429193 1.96393 0.00915171 10 4 1 -3.05355e-09 
1.41374 -0.673318 0.00386182 0.0025 0.546348 0.429183 1.96387 0.00915167 11 4 1 3.68695e-09 
1.41832 -0.67334 0.00430009 0.0025 0.546349 0.429173 1.96382 0.00915166 12 3 1 1.55339e-09 
1.42289 -0.673363 0.00481919 0.0025 0.546348 0.429161 1.96377 0.00915168 13 4 1 2.04476e-09 
1.42747 -0.673388 0.00539746 0.0025 0.546344 0.429147 1.96372 0.00915175 14 4 1 4.01327e-10 
1.43204 -0.673414 0.00603023 0.0025 0.546338 0.429132 1.96368 0.00915185 15 4 1 -3.47769e-09 
1.43662 -0.673444 0.00671811 0.0025 0.54633 0.429116 1.96363 0.00915198 16 4 1 2.83361e-09 
1.4412 -0.673476 0.0074499 0.0025 0.54632 0.429097 1.96358 0.00915215 17 4 1 -7.50703e-10 
1.44577 -0.673511 0.00823153 0.0025 0.546307 0.429076 1.96353 0.00915236 18 4 1 -3.64711e-09 
1.45035 -0.673551 0.00913742 0.0025 0.546292 0.429053 1.96348 0.00915262 19 4 1 -1.72907e-10 
1.45492 -0.673595 0.0102896 0.0025 0.546274 0.429027 1.96343 0.00915292 20 4 1 -2.37e-09 
1.4595 -0.673644 0.011733 0.0025 0.546252 0.428998 1.96337 0.00915328 21 4 1 -3.05766e-09 
1.46408 -0.673698 0.0133288 0.0025 0.546227 0.428965 1.96331 0.00915371 22 4 1 -3.58616e-09 
1.46865 -0.673757 0.0148456 0.0025 0.546197 0.428928 1.96325 0.0091542 23 4 1 -4.80933e-09 
1.47323 -0.673826 0.0162641 0.0025 0.546163 0.428886 1.96318 0.00915477 24 4 1 -3.28361e-09 
1.47781 -0.673905 0.0179854 0.0025 0.546125 0.42884 1.9631 0.00915542 25 4 1 -5.06529e-09 
1.48239 -0.673996 0.0205446 0.0025 0.546081 0.428788 1.96302 0.00915615 26 4 1 -8.17752e-09 
1.48697 -0.674096 0.0239699 0.0025 0.546031 0.428729 1.96294 0.00915699 27 4 1 -8.45985e-09 
1.49154 -0.674208 0.0276135 0.0025 0.545972 0.428661 1.96284 0.00915798 28 4 1 -9.3111e-09 
1.49612 -0.674333 0.0308603 0.0025 0.545904 0.428583 1.96272 0.00915912 29 4 1 -1.02245e-08 
-0.499296 -0.674477 0.033841 0.0025 0.545828 0.428497 1.9626 0.00916039 30 4 1 -8.39082e-09 
-0.494716 -0.674643 0.0373276 0.0025 0.545744 0.428402 1.96247 0.0091618 31 4 1 -7.58751e-09 
-0.490134 -0.674829 0.0420715 0.0025 0.545652 0.428297 1.96232 0.00916336 32 4 1 -1.15616e-08 
-0.485552 -0.675028 0.0474836 0.0025 0.54555 0.428183 1.96216 0.00916507 33 4 1 -9.60683e-09 
-0.480969 -0.675236 0.0507289 0.0025 0.54544 0.42806 1.96199 0.00916691 34 4 1 1.59969e-09 
-0.476385 -0.67545 0.050168 0.0025 0.545329 0.427937 1.96183 0.00916877 35 4 1 1.13816e-08 
-0.471801 -0.675661 0.0467528 0.0025 0.545227 0.427823 1.96167 0.00917048 36 4 1 2.32718e-08 
-0.467215 -0.675842 0.0375504 0.0025 0.545145 0.427731 1.96154 0.00917187 37 4 1 3.13575e-08 
-0.462629 -0.675988 0.0378549 0.0025 0.545088 0.427669 1.96145 0.00917283 38 5 1 8.40412e-08 
-0.458042 -0.676017 -0.0276824 0.0025 0.545099 0.427679 1.96146 0.00917264 39 4 1 6.92229e-08 
-0.453456 -0.675856 -0.00447981 0.0025 0.54517 0.427757 1.96155 0.00917146 40 4 1 1.47724e-07 
-0.448871 -0.675734 -0.0833275 0.0025 0.545368 0.427994 1.96182 0.00916812 41 4 1 6.99243e-07 
-0.444288 -0.674487 -0.500083 0.0025 0.546117 0.428834 1.96289 0.00915555 42 4 1 1.26838e-06 
-0.439715 -0.671224 -0.971895 0.0025 0.547785 0.430663 1.96529 0.00912766 43 4 1 1.2946e-06 
-0.43516 -0.666387 -1.22889 0.0025 0.550272 0.433395 1.96884 0.00908642 44 4 1 1.32438e-06 
-0.430629 -0.660501 -1.51829 0.0025 0.553451 0.436917 1.97338 0.00903422 45 4 1 1.99937e-06 
-0.426126 -0.652851 -2.07258 0.0025 0.557589 0.441514 1.97926 0.00896717 46 4 1 2.92845e-06 
-0.421661 -0.642661 -2.72004 0.0025 0.562996 0.447521 1.98691 0.00888106 47 4 1 3.58425e-06 
-0.417245 -0.63008 -3.3022 0.0025 0.569679 0.454966 1.99632 0.00877687 48 4 1 3.85524e-06 
-0.412884 -0.615577 -3.72482 0.0025 0.577399 0.463604 2.00709 0.00865952 49 4 1 3.70175e-06 
-0.408585 -0.600123 -3.92261 0.0025 0.585763 0.473014 2.01867 0.00853587 50 4 1 3.33497e-06 
-0.404348 -0.584454 -3.98132 0.0025 0.594394 0.482787 2.03051 0.00841193 51 4 1 2.98484e-06 
-0.400172 -0.568915 -3.96743 0.0025 0.603049 0.492647 2.04229 0.0082912 52 4 1 2.57373e-06 
-0.396056 -0.553906 -3.84889 0.0025 0.611541 0.502378 2.05374 0.00817607 53 4 1 2.25542e-06 
-0.391996 -0.539528 -3.75035 0.0025 0.619775 0.51187 2.06475 0.00806745 54 4 1 2.0349e-06 
-0.387988 -0.525796 -3.62528 0.0025 0.62774 0.521102 2.07531 0.00796508 55 4 1 1.8623e-06 
-0.38403 -0.51268 -3.52039 0.0025 0.635447 0.530086 2.08546 0.00786847 56 4 1 1.93163e-06 
-0.380119 -0.499934 -3.53649 0.0025 0.643032 0.538971 2.09538 0.00777566 57 4 1 2.09031e-06 
-0.376254 -0.487234 -3.58858 0.0025 0.650649 0.547936 2.10526 0.00768463 58 4 1 2.31543e-06 
-0.372435 -0.474356 -3.74608 0.0025 0.65844 0.557147 2.11531 0.00759371 59 4 1 2.55355e-06 
-0.36866 -0.461068 -3.9203 0.0025 0.666516 0.566739 2.12564 0.00750169 60 4 1 2.67945e-06 
-0.364933 -0.447413 -4.0866 0.0025 0.674892 0.576732 2.13629 0.00740859 61 4 1 2.73007e-06 
-0.361251 -0.433446 -4.22173 0.0025 0.68353 0.587088 2.14718 0.00731497 62 4 1 2.69136e-06 
-0.357617 -0.419328 -4.30584 0.0025 0.692355 0.597724 2.15822 0.00722173 63 4 1 2.66078e-06 
-0.354029 -0.405157 -4.39674 0.0025 0.701315 0.608578 2.16935 0.00712946 64 4 1 2.59641e-06 
-0.350487 -0.39099 -4.43617 0.0025 0.710361 0.619591 2.1805 0.00703867 65 4 1 2.45902e-06 
-0.34699 -0.376967 -4.4347 0.0025 0.719414 0.630672 2.19157 0.0069501 66 4 1 2.41123e-06 
-0.343537 -0.363117 -4.47539 0.0025 0.728467 0.641809 2.20255 0.00686373 67 4 1 2.36285e-06 
-0.340126 -0.349351 -4.48395 0.0025 0.73752 0.653001 2.21346 0.00677947 68 4 1 2.28653e-06 
-0.336757 -0.335812 -4.49859 0.0025 0.746554 0.664224 2.22426 0.00669744 69 4 1 2.21669e-06 
-0.333429 -0.322388 -4.49501 0.0025 0.755557 0.675463 2.23495 0.00661763 70 4 1 2.14324e-06 
-0.330139 -0.309209 -4.494 0.0025 0.764519 0.686706 2.24551 0.00654006 71 4 1 2.11722e-06 
-0.326888 -0.296167 -4.51624 0.0025 0.773458 0.697972 2.25597 0.00646447 72 4 1 2.08004e-06 
-0.323675 -0.283243 -4.52738 0.0025 0.782384 0.709272 2.26635 0.00639073 73 4 1 2.01668e-06 
-0.320498 -0.270504 -4.53055 0.0025 0.791282 0.72059 2.27662 0.00631886 74 4 1 1.94986e-06 
-0.317356 -0.257907 -4.5237 0.0025 0.800141 0.731908 2.28678 0.0062489 75 4 1 1.89663e-06 
-0.314248 -0.245508 -4.52286 0.0025 0.808959 0.743225 2.29682 0.00618078 76 4 1 1.88558e-06 
-0.311175 -0.233246 -4.5488 0.0025 0.81776 0.754569 2.30678 0.00611426 77 4 1 1.85881e-06 
-0.308134 -0.221098 -4.56219 0.0025 0.826554 0.765952 2.31667 0.00604921 78 4 1 1.80769e-06 
-0.305125 -0.209092 -4.57102 0.0025 0.835328 0.777356 2.32647 0.00598567 79 4 1 1.71378e-06 
-0.302148 -0.197199 -4.53332 0.0025 0.844046 0.788737 2.33615 0.00592385 80 4 1 1.66982e-06 
-0.299201 -0.185532 -4.54248 0.0025 0.852709 0.800093 2.34571 0.00586367 81 4 1 1.66912e-06 
-0.296284 -0.173969 -4.55103 0.0025 0.86135 0.811466 2.35519 0.00580484 82 4 1 1.64169e-06 
-0.293396 -0.162522 -4.56527 0.0025 0.869975 0.822865 2.36459 0.00574729 83 4 1 1.63562e-06 
-0.290537 -0.151117 -4.60038 0.0025 0.878601 0.834308 2.37394 0.00569086 84 4 1 1.55827e-06 
-0.287705 -0.139912 -4.56633 0.0025 0.887194 0.845749 2.3832 0.00563575 85 4 1 1.45221e-06 
-0.284901 -0.128851 -4.52701 0.0025 0.8957 0.857124 2.39231 0.00558223 86 4 1 1.44813e-06 
-0.282123 -0.117991 -4.53788 0.0025 0.904152 0.868467 2.40131 0.00553005 87 4 1 1.41469e-06 
-0.279371 -0.107273 -4.50589 0.0025 0.91256 0.879798 2.41021 0.00547909 88 4 1 1.50469e-06 
-0.276644 -0.0965386 -4.64083 0.0025 0.921007 0.891219 2.41911 0.00542884 89 4 1 1.42532e-06 
-0.273942 -0.0858699 -4.56343 0.0025 0.929454 0.902679 2.42796 0.0053795 90 4 1 1.32256e-06 
-0.271264 -0.0753694 -4.58759 0.0025 0.93782 0.914063 2.43669 0.00533152 91 4 1 9.60106e-07 
-0.26861 -0.0653286 -4.17711 0.0025 0.945908 0.925125 2.44505 0.00528592 92 4 1 1.27851e-06 
-0.265978 -0.0557087 -4.62898 0.0025 0.953971 0.936211 2.45337 0.00524125 93 4 1 1.79876e-06 
-0.263369 -0.0448521 -4.90273 0.0025 0.962411 0.94778 2.46206 0.00519529 94 4 1 2.85792e-07 
-0.260783 -0.0354292 -3.54516 0.0025 0.970147 0.958444 2.46993 0.00515386 95 4 1 3.37225e-07 
-0.258215 -0.0276825 -3.88031 0.0025 0.977268 0.968403 2.47711 0.0051163 96 4 1 2.97361e-06 
-0.255666 -0.0171089 -5.97231 0.0025 0.985829 0.980301 2.48584 0.00507187 97 4 1 2.09171e-06 
-0.253143 -0.00480609 -5.18991 0.0025 0.994992 0.99291 2.49515 0.00502517 98 4 1 -2.7144e-06 
-0.250641 0.00218162 -1.17349 0.0025 1.00097 1.00124 2.50104 0.00499516 99 4 1 -2.21546e-06 
-0.248148 0.0039979 -1.19116 0.0025 1.00437 1.00626 2.50428 0.00497822 100 4 1 4.3319e-06 
-0.245663 0.0117861 -6.46554 0.0025 1.01103 1.01568 2.51102 0.00494543 101 4 1 4.49988e-06 
-0.243202 0.0259822 -6.3242 0.0025 1.02079 1.02912 2.52086 0.00489819 102 4 1 -3.60674e-06 
-0.240765 0.0328071 -0.813882 0.0025 1.02658 1.0372 2.52652 0.00487053 103 4 1 -4.62499e-06 
-0.238332 0.0324334 0.744689 0.0025 1.02699 1.03792 2.52684 0.00486861 104 3 1 -1.39824e-06 
-0.235896 0.0305095 1.06911 0.0025 1.02546 1.03583 2.52532 0.00487584 105 4 1 -3.0553e-07 
-0.233456 0.0282139 1.14906 0.0025 1.02348 1.03303 2.52336 0.0048853 106 4 1 -1.16578e-07 
-0.231011 0.0257003 1.24995 0.0025 1.02126 1.0299 2.52117 0.00489589 107 4 1 -1.01682e-07 
-0.22856 0.0229217 1.38352 0.0025 1.01883 1.02647 2.51876 0.00490759 108 4 1 -6.10283e-08 
-0.226103 0.019879 1.50594 0.0025 1.01621 1.02277 2.51615 0.00492027 109 4 1 4.10813e-08 
-0.22364 0.0166737 1.56434 0.0025 1.01349 1.01895 2.51346 0.00493344 110 4 1 1.75696e-07 
-0.22117 0.0134802 1.53003 0.0025 1.01083 1.01522 2.51081 0.00494641 111 4 1 2.98838e-07 
-0.218693 0.0104883 1.40447 0.0025 1.00838 1.01177 2.50836 0.00495844 112 4 1 3.77944e-07 
-0.216211 0.00785158 1.21249 0.0025 1.00624 1.00877 2.50623 0.00496897 113 4 1 4.02644e-07 
-0.213724 0.00565857 0.988629 0.0025 1.00448 1.0063 2.50447 0.00497769 114 4 1 3.81084e-07 
-0.211233 0.00392969 0.764969 0.0025 1.0031 1.00436 2.50309 0.00498453 115 4 1 3.30162e-07 
-0.20874 0.00263217 0.564194 0.0025 1.00207 1.00292 2.50207 0.00498965 116 4 1 2.66855e-07 
-0.206244 0.0017016 0.398082 0.0025 1.00134 1.00188 2.50133 0.00499332 117 4 1 2.03733e-07 
-0.203746 0.00106192 0.269433 0.0025 1.00083 1.00117 2.50083 0.00499583 118 4 1 1.48103e-07 
-0.201248 0.000639575 0.175231 0.0025 1.0005 1.00071 2.5005 0.00499749 119 4 1 1.03019e-07 
-0.198749 0.000371427 0.109597 0.0025 1.00029 1.00041 2.50029 0.00499854 120 4 1 6.87546e-08 
-0.196249 0.000207667 0.0659112 0.0025 1.00016 1.00023 2.50016 0.00499918 121 4 1 4.40776e-08 
-0.19375 0.000111525 0.0380772 0.0025 1.00009 1.00012 2.50009 0.00499956 122 4 1 2.71436e-08 
-0.19125 5.73412e-05 0.0210904 0.0025 1.00005 1.00006 2.50004 0.00499977 123 4 1 1.60411e-08 
-0.18875 2.80984e-05 0.0111667 0.0025 1.00002 1.00003 2.50002 0.00499989 124 4 1 9.08064e-09 
-0.18625 1.3039e-05 0.0056273 0.0025 1.00001 1.00001 2.50001 0.00499995 125 4 1 4.90998e-09 
-0.18375 5.67713e-06 0.00268206 0.0025 1 1.00001 2.5 0.00499998 126 4 1 2.52543e-09 
-0.18125 2.28658e-06 0.00119771 0.0025 1 1 2.5 0.00499999 127 4 1 1.22828e-09 
-0.17875 8.3219e-07 0.000493769 0.0025 1 1 2.5 0.005 128 4 1 5.59938e-10 
-0.17625 2.61888e-07 0.000183109 0.0025 1 1 2.5 0.005 129 4 1 2.35972e-10 
-0.17375 6.43023e-08 5.81732e-05 0.0025 1 1 2.5 0.005 130 4 1 8.94931e-11 
-0.17125 8.29169e-09 1.36423e-05 0.0025 1 1 2.5 0.005 131 4 1 2.99275e-11 
-0.16875 -1.7056e-09 -5.57837e-08 0.0025 1 1 2.5 0.005 132 5 1 7.48448e-12 
-0.16625 1.21587e-09 -1.52734e-06 0.0025 1 1 2.5 0.005 133 4 1 -3.91122e-13 
-0.16375 2.01272e-09 7.51672e-08 0.0025 1 1 2.5 0.005 134 3 1 -8.28202e-13 
-0.16125 1.47202e-09 3.49117e-07 0.0025 1 1 2.5 0.005 135 4 1 -5.63414e-14 
-0.15875 8.25969e-10 2.99064e-07 0.0025 1 1 2.5 0.005 136 4 1 1.30935e-13 
-0.15625 3.86989e-10 1.78237e-07 0.0025 1 1 2.5 0.005 137 4 1 1.27261e-13 
-0.15375 1.53338e-10 8.68836e-08 0.0025 1 1 2.5 0.005 138 4 1 8.03958e-14 
-0.15125 4.97304e-11 3.52175e-08 0.0025 1 1 2.5 0.005 139 4 1 4.05034e-14 
-0.14875 1.17508e-11 1.14687e-08 0.0025 1 1 2.5 0.005 140 4 1 1.68168e-14 
-0.14625 1.02489e-12 2.60854e-09 0.0025 1 1 2.5 0.005 141 4 1 5.81792e-15 
-0.14375 -4.48903e-13 -3.36172e-10 0.0025 1 1 2.5 0.005 142 5 1 1.28857e-15 
-0.14125 2.62113e-13 -2.39652e-10 0.0025 1 1 2.5 0.005 143 4 1 -2.11386e-16 
-0.13875 3.45557e-13 2.70575e-11 0.0025 1 1 2.5 0.005 144 3 1 -1.28964e-16 
-0.13625 2.23868e-13 7.63976e-11 0.0025 1 1 2.5 0.005 145 4 1 -4.26326e-18 
-0.13375 9.4385e-14 5.12159e-11 0.0025 1 1 2.5 0.005 146 4 1 2.94875e-17 
-0.13125 3.7886e-14 2.16005e-11 0.0025 1 1 2.5 0.005 147 4 1 3.12639e-17 
-0.12875 3.74394e-15 1.25624e-11 0.0025 1 1 2.5 0.005 148 4 1 8.88178e-18 
-0.12625 -6.44218e-16 -9.66338e-13 0.0025 1 1 2.5 0.005 149 5 1 3.19744e-18 
-0.12375 -2.08945e-16 -2.27374e-13 0.0025 1 1 2.5 0.005 150 5 1 -1.42109e-18 
-0.12125 -4.12072e-47 -4.48416e-44 0.0025 1 1 2.5 0.005 151 5 1 -1.42109e-18 
-0.11875 0 0 0.0025 1 1 2.5 0.005 152 5 1 -1.42109e-18 
-0.11625 0 0 0.0025 1 1 2.5 0.005 153 5 1 -1.42109e-18 
-0.11375 0 0 0.0025 1 1 2.5 0.005 154 5 1 -1.42109e-18 
-0.11125 0 0 0.0025 1 1 2.5 0.005 155 5 1 -1.42109e-18 
-0.10875 0 0 0.0025 1 1 2.5 0.005 156 5 1 -1.42109e-18 
-0.10625 -3.39936e-46 -3.36312e-44 0.0025 1 1 2.5 0.005 157 5 1 -1.42109e-18 
-0.10375 -1.39307e-16 -3.36312e-44 0.0025 1 1 2.5 0.005 158 5 1 -1.42109e-18 
-0.10125 -2.78626e-16 0 0.0025 1 1 2.5 0.005 159 5 1 -1.42109e-18 
-0.09875 -4.18258e-16 0 0.0025 1 1 2.5 0.005 160 5 1 -1.42109e-18 
-0.09625 -5.9243e-16 -1.13687e-13 0.0025 1 1 2.5 0.005 161 5 1 -1.42109e-18 
-0.09375 -7.31719e-16 1.13687e-13 0.0025 1 1 2.5 0.005 162 5 1 -1.42109e-18 
-0.09125 -8.70898e-16 -1.13687e-13 0.0025 1 1 2.5 0.005 163 5 1 -1.42109e-18 
-0.08875 -1.07971e-15 1.13687e-13 0.0025 1 1 2.5 0.005 164 5 1 -1.42109e-18 
-0.08625 -1.28807e-15 -1.13687e-13 0.0025 1 1 2.5 0.005 165 5 1 -1.77636e-18 
-0.08375 -1.75733e-15 5.68434e-14 0.0025 1 1 2.5 0.005 166 5 1 -7.10543e-19 
-0.08125 1.95833e-15 -1.13687e-13 0.0025 1 1 2.5 0.005 167 5 1 -3.55271e-18 
-0.07875 -7.20156e-16 -2.27374e-13 0.0025 1 1 2.5 0.005 168 5 1 6.03961e-18 
-0.07625 -1.03535e-15 -1.13687e-13 0.0025 1 1 2.5 0.005 169 5 1 -1.35003e-17 
-0.07375 -3.37449e-15 5.68434e-14 0.0025 1 1 2.5 0.005 170 5 1 1.35003e-17 
-0.07125 -6.87306e-16 4.54747e-13 0.0025 1 1 2.5 0.005 171 5 1 -2.27374e-17 
-0.06875 -2.54987e-15 5.68434e-13 0.0025 1 1 2.5 0.005 172 5 1 2.23821e-17 
-0.06625 -3.70134e-16 -6.82121e-13 0.0025 1 1 2.5 0.005 173 5 1 -2.27374e-17 
-0.06375 -1.15408e-15 2.27374e-13 0.0025 1 1 2.5 0.005 174 4 1 4.81482e-32 
-0.06125 -3.13788e-15 7.38964e-13 0.0025 1 1 2.5 0.005 175 3 1 2.52243e-17 
-0.05875 4.39262e-15 -3.41061e-13 0.0025 1 1 2.5 0.005 176 4 1 -1.7053e-17 
-0.05625 -1.86402e-15 -2.84217e-13 0.0025 1 1 2.5 0.005 177 5 1 4.9738e-18 
-0.05375 -2.01703e-15 5.68434e-14 0.0025 1 1 2.5 0.005 178 4 1 -5.32907e-18 
-0.05125 1.85724e-15 1.38051e-27 0.0025 1 1 2.5 0.005 179 5 1 7.10543e-19 
-0.04875 1.38355e-15 5.68434e-14 0.0025 1 1 2.5 0.005 180 5 1 -4.26326e-18 
-0.04625 1.25065e-15 -5.60519e-44 0.0025 1 1 2.5 0.005 181 5 1 2.46519e-33 
-0.04375 1.75788e-16 -5.68434e-14 0.0025 1 1 2.5 0.005 182 5 1 -2.13163e-18 
-0.04125 -3.89405e-16 5.68434e-14 0.0025 1 1 2.5 0.005 183 5 1 -4.26326e-18 
-0.03875 -3.43087e-15 5.68434e-14 0.0025 1 1 2.5 0.005 184 5 1 4.9738e-18 
-0.03625 -1.8347e-15 2.84217e-13 0.0025 1 1 2.5 0.005 185 5 1 -1.42109e-17 
-0.03375 -3.4358e-15 2.27374e-13 0.0025 1 1 2.5 0.005 186 4 1 -7.4607e-18 
-0.03125 1.28382e-16 -2.84217e-13 0.0025 1 1 2.5 0.005 187 3 1 4.47642e-17 
-0.02875 -1.81056e-15 -2.27374e-13 0.0025 1 1 2.5 0.005 188 4 1 -3.58824e-17 
-0.02625 -1.84429e-15 -1.13687e-13 0.0025 1 1 2.5 0.005 189 5 1 9.59233e-18 
-0.02375 -2.20286e-15 -3.54987e-28 0.0025 1 1 2.5 0.005 190 3 1 -2.4869e-18 
-0.02125 -2.30582e-16 1.13687e-13 0.0025 1 1 2.5 0.005 191 4 1 4.61853e-18 
-0.01875 -7.98737e-16 -1.36424e-12 0.0025 1 1 2.5 0.005 192 4 1 -5.68434e-18 
-0.01625 -2.45875e-15 1.36424e-12 0.0025 1 1 2.5 0.005 193 5 1 -1.77636e-18 
-0.01375 -5.73995e-16 -9.09495e-13 0.0025 1 1 2.5 0.005 194 4 1 2.84217e-18 
-0.01125 -1.75913e-15 5.68434e-13 0.0025 1 1 2.5 0.005 195 4 1 -1.42109e-18 
-0.00875 -9.66799e-16 2.46519e-28 0.0025 1 1 2.5 0.005 196 4 1 6.24001e-33 
-0.00625 -8.99459e-16 5.68434e-14 0.0025 1 1 2.5 0.005 197 4 1 -1.42109e-18 
-0.00375 -1.33813e-16 2.27374e-13 0.0025 1 1 2.5 0.005 198 4 1 1.2326e-33 
-0.00125 -5.24156e-16 -1.13687e-13 0.0025 1 1 2.5 0.005 199 5 1 -1.06581e-18 
0.00125 -6.69446e-16 0 0.0025 1 1 2.5 0.005 200 3 1 3.55271e-19 
0.00375 -4.19384e-16 1.13687e-13 0.0025 1 1 2.5 0.005 201 3 1 0 
0.00625 -5.58929e-16 -1.13687e-13 0.0025 1 1 2.5 0.005 202 4 1 3.77482e-33 
0.00875 -1.09214e-15 -1.13687e-13 0.0025 1 1 2.5 0.005 203 3 1 3.55271e-19 
0.01125 2.76303e-16 -1.7053e-13 0.0025 1 1 2.5 0.005 204 4 1 2.13163e-18 
0.01375 -4.53823e-16 5.68434e-14 0.0025 1 1 2.5 0.005 205 5 1 -4.26326e-18 
0.01625 -1.23614e-15 -5.68434e-14 0.0025 1 1 2.5 0.005 206 4 1 2.4869e-18 
0.01875 1.90182e-17 5.68434e-14 0.0025 1 1 2.5 0.005 207 4 1 -5.32907e-18 
0.02125 -6.20775e-16 5.68434e-14 0.0025 1 1 2.5 0.005 208 3 1 6.75016e-18 
0.02375 -3.42326e-17 -5.68434e-14 0.0025 1 1 2.5 0.005 209 3 1 1.06581e-18 
0.02625 1.8141e-15 2.27374e-13 0.0025 1 1 2.5 0.005 210 4 1 -2.13163e-18 
0.02875 8.66194e-16 2.27374e-13 0.0025 1 1 2.5 0.005 211 4 1 -4.26326e-18 
0.03125 3.66948e-15 1.13687e-13 0.0025 1 1 2.5 0.005 212 3 1 3.19744e-18 
0.03375 2.79389e-15 1.13687e-13 0.0025 1 1 2.5 0.005 213 4 1 9.59233e-18 
0.03625 1.83799e-15 1.13687e-13 0.0025 1 1 2.5 0.005 214 5 1 -1.84741e-17 
0.03875 6.34339e-16 3.9443e-29 0.0025 1 1 2.5 0.005 215 4 1 1.81188e-17 
0.04125 9.47887e-16 2.27374e-13 0.0025 1 1 2.5 0.005 216 4 1 -1.52767e-17 
0.04375 1.48281e-16 -1.13687e-13 0.0025 1 1 2.5 0.005 217 4 1 -3.55271e-19 
0.04625 4.26985e-15 -3.41061e-13 0.0025 1 1 2.5 0.005 218 4 1 4.26326e-18 
0.04875 1.91595e-15 5.68434e-14 0.0025 1 1 2.5 0.005 219 5 1 -2.84217e-18 
0.05125 4.40456e-15 -1.13687e-13 0.0025 1 1 2.5 0.005 220 5 1 -1.42109e-18 
0.05375 3.75502e-15 -3.41061e-13 0.0025 1 1 2.5 0.005 221 4 1 1.06581e-18 
0.05625 4.70325e-15 2.27374e-13 0.0025 1 1 2.5 0.005 222 4 1 1.3145e-17 
0.05875 1.16651e-15 1.93268e-12 0.0025 1 1 2.5 0.005 223 5 1 -5.50671e-17 
0.06125 3.5719e-15 -2.84217e-12 0.0025 1 1 2.5 0.005 224 4 1 4.76064e-17 
0.06375 6.63297e-15 7.38964e-13 0.0025 1 1 2.5 0.005 225 3 1 6.39488e-18 
0.06625 1.68337e-15 3.97904e-13 0.0025 1 1 2.5 0.005 226 5 1 -2.73559e-17 
0.06875 6.79483e-15 -1.7053e-13 0.0025 1 1 2.5 0.005 227 5 1 1.95399e-17 
0.07125 3.41331e-15 -1.13687e-13 0.0025 1 1 2.5 0.005 228 5 1 -1.63425e-17 
0.07375 4.7376e-15 -8.96831e-44 0.0025 1 1 2.5 0.005 229 5 1 9.59233e-18 
0.07625 4.52885e-15 6.72623e-44 0.0025 1 1 2.5 0.005 230 5 1 -1.35003e-17 
0.07875 5.73787e-15 5.68434e-14 0.0025 1 1 2.5 0.005 231 5 1 8.88178e-18 
0.08125 4.76147e-15 3.36312e-44 0.0025 1 1 2.5 0.005 232 5 1 -1.03029e-17 
0.08375 4.375e-15 -1.79366e-43 0.0025 1 1 2.5 0.005 233 5 1 4.61853e-18 
0.08625 2.03568e-15 1.7053e-13 0.0025 1 1 2.5 0.005 234 5 1 -3.90799e-18 
