# Time [s]: 0.211407
# Columns: pos [m], vel [m/s], acc [m/s^2], mass [kg], dens [kg/m^3], pres [Pa], ene [J/kg], sml [m], id, neighbor, alpha, gradh, ...additional?
1.35993 -0.673168 0.00156549 0.0025 0.511005 0.432672 2.15242 0.00978465 0 4 1 -0.000134227 
1.36471 -0.673176 0.00169773 0.0025 0.536856 0.426132 1.94997 0.00931348 1 4 1 0.000179243 
1.36925 -0.673184 0.00183071 0.0025 0.548181 0.430797 1.96842 0.00912107 2 3 1 -1.90589e-05 
1.37383 -0.673193 0.0019693 0.0025 0.545912 0.429128 1.96456 0.00915898 3 5 1 3.48624e-06 
1.37841 -0.673202 0.00210857 0.0025 0.546306 0.429278 1.96449 0.00915238 4 4 1 -1.39031e-07 
1.38299 -0.673213 0.00224688 0.0025 0.546312 0.429243 1.96425 0.00915228 5 4 1 1.43327e-07 
1.38756 -0.673224 0.00238436 0.0025 0.54633 0.429237 1.96418 0.00915198 6 4 1 -3.92605e-09 
1.39214 -0.673237 0.00252583 0.0025 0.546338 0.429228 1.96411 0.00915185 7 4 1 7.7872e-09 
1.39671 -0.67325 0.00268697 0.0025 0.546346 0.42922 1.96405 0.00915171 8 4 1 4.24731e-09 
1.40129 -0.673266 0.002895 0.0025 0.546352 0.429213 1.96399 0.00915161 9 4 1 4.82379e-09 
1.40587 -0.673282 0.00317559 0.0025 0.546356 0.429205 1.96394 0.00915154 10 4 1 -3.08386e-09 
1.41044 -0.6733 0.00353496 0.0025 0.54636 0.429196 1.96389 0.00915148 11 4 1 3.67651e-09 
1.41502 -0.67332 0.00395844 0.0025 0.546361 0.429186 1.96384 0.00915145 12 3 1 1.61852e-09 
1.41959 -0.67334 0.00442791 0.0025 0.546361 0.429175 1.96379 0.00915146 13 4 1 2.19445e-09 
1.42417 -0.673362 0.00493444 0.0025 0.546358 0.429163 1.96374 0.00915151 14 4 1 6.21071e-10 
1.42874 -0.673386 0.0054715 0.0025 0.546353 0.429149 1.9637 0.00915159 15 4 1 -3.18511e-09 
1.43332 -0.673413 0.00603266 0.0025 0.546347 0.429134 1.96365 0.00915169 16 4 1 3.19021e-09 
1.4379 -0.673441 0.00663806 0.0025 0.546339 0.429118 1.96361 0.00915184 17 4 1 -4.14763e-10 
1.44247 -0.673473 0.00735862 0.0025 0.546328 0.429099 1.96356 0.00915202 18 4 1 -3.44519e-09 
1.44705 -0.673508 0.00827646 0.0025 0.546315 0.429078 1.96351 0.00915223 19 4 1 -6.37373e-11 
1.45162 -0.673547 0.00938688 0.0025 0.546299 0.429055 1.96346 0.00915249 20 4 1 -2.05642e-09 
1.4562 -0.673589 0.0105525 0.0025 0.54628 0.429029 1.96341 0.00915281 21 4 1 -2.20882e-09 
1.46078 -0.673636 0.0116228 0.0025 0.546258 0.429 1.96336 0.00915318 22 4 1 -2.28796e-09 
1.46535 -0.67369 0.0126629 0.0025 0.546233 0.428967 1.9633 0.00915361 23 4 1 -3.7198e-09 
1.46993 -0.673752 0.0140235 0.0025 0.546204 0.428931 1.96324 0.00915409 24 4 1 -3.03964e-09 
1.47451 -0.673822 0.0160468 0.0025 0.546171 0.428891 1.96317 0.00915464 25 4 1 -5.35895e-09 
1.47909 -0.6739 0.0186445 0.0025 0.546133 0.428845 1.9631 0.00915528 26 4 1 -7.74815e-09 
1.48366 -0.673985 0.0213118 0.0025 0.546088 0.428792 1.96302 0.00915603 27 4 1 -6.46017e-09 
1.48824 -0.674082 0.0236922 0.0025 0.546037 0.428732 1.96293 0.00915689 28 4 1 -6.52272e-09 
1.49282 -0.674194 0.02606 0.0025 0.545979 0.428665 1.96283 0.00915787 29 4 1 -8.50698e-09 
1.4974 -0.674323 0.0291719 0.0025 0.545914 0.428591 1.96272 0.00915896 30 4 1 -9.00915e-09 
-0.498021 -0.67447 0.0335578 0.0025 0.545841 0.428507 1.9626 0.00916018 31 4 1 -9.85361e-09 
-0.49344 -0.67463 0.0386449 0.0025 0.545757 0.428413 1.96247 0.00916159 32 4 1 -1.30362e-08 
-0.488859 -0.674806 0.0429147 0.0025 0.545663 0.428307 1.96233 0.00916317 33 4 1 -9.94238e-09 
-0.484277 -0.674999 0.0458048 0.0025 0.545561 0.428192 1.96217 0.00916489 34 4 1 -2.15869e-09 
-0.479694 -0.675209 0.0479492 0.0025 0.545454 0.428074 1.96201 0.00916667 35 4 1 8.34864e-10 
-0.475111 -0.675425 0.0486378 0.0025 0.545348 0.427955 1.96184 0.00916846 36 4 1 8.32107e-09 
-0.470526 -0.675634 0.0462215 0.0025 0.545249 0.427845 1.96169 0.00917012 37 4 1 2.21009e-08 
-0.46594 -0.675812 0.0393467 0.0025 0.545166 0.427752 1.96156 0.00917151 38 4 1 2.46965e-08 
-0.461354 -0.675943 0.0363935 0.0025 0.545105 0.427685 1.96147 0.00917255 39 5 1 8.01591e-08 
-0.456768 -0.676004 -0.0211782 0.0025 0.545109 0.427688 1.96146 0.00917247 40 4 1 8.3098e-08 
-0.452182 -0.675822 -0.016747 0.0025 0.545182 0.427768 1.96156 0.00917125 41 4 1 1.16199e-07 
-0.447597 -0.675701 -0.0596119 0.0025 0.545357 0.427976 1.9618 0.00916831 42 4 1 5.8728e-07 
-0.443014 -0.674704 -0.422048 0.0025 0.546 0.428702 1.96272 0.00915751 43 4 1 1.20632e-06 
-0.438439 -0.671748 -0.91524 0.0025 0.547529 0.430381 1.96491 0.00913194 44 4 1 1.32637e-06 
-0.433882 -0.667077 -1.20836 0.0025 0.549917 0.433002 1.96833 0.00909228 45 4 1 1.27176e-06 
-0.429347 -0.661338 -1.45705 0.0025 0.552985 0.436396 1.97271 0.00904184 46 4 1 1.79296e-06 
-0.42484 -0.65407 -1.94649 0.0025 0.556912 0.440757 1.97829 0.00897807 47 4 1 2.67117e-06 
-0.420369 -0.644456 -2.56044 0.0025 0.562016 0.446427 1.98552 0.00889655 48 4 1 3.36634e-06 
-0.415943 -0.632526 -3.1467 0.0025 0.568367 0.453499 1.99447 0.00879714 49 4 1 3.69657e-06 
-0.411571 -0.618632 -3.5865 0.0025 0.575777 0.461782 2.00483 0.00868392 50 4 1 3.60762e-06 
-0.407259 -0.603591 -3.81529 0.0025 0.583881 0.470888 2.01607 0.00856339 51 4 1 3.27589e-06 
-0.403007 -0.588234 -3.8898 0.0025 0.592304 0.480413 2.02765 0.00844161 52 4 1 2.95618e-06 
-0.398816 -0.572923 -3.90268 0.0025 0.600799 0.490076 2.03923 0.00832225 53 4 1 2.58407e-06 
-0.394685 -0.558053 -3.80744 0.0025 0.609182 0.499667 2.05056 0.00820773 54 4 1 2.25018e-06 
-0.390608 -0.543776 -3.70753 0.0025 0.617333 0.509049 2.06148 0.00809936 55 4 1 2.04081e-06 
-0.386585 -0.530107 -3.60635 0.0025 0.625236 0.518193 2.07199 0.00799698 56 4 1 1.83307e-06 
-0.382611 -0.51705 -3.47964 0.0025 0.63288 0.527085 2.08208 0.0079004 57 4 1 1.81502e-06 
-0.378684 -0.504451 -3.4599 0.0025 0.640347 0.535818 2.09187 0.00780827 58 4 1 1.94057e-06 
-0.374802 -0.491993 -3.48618 0.0025 0.647786 0.544558 2.10155 0.0077186 59 4 1 2.12309e-06 
-0.370965 -0.479482 -3.60039 0.0025 0.655333 0.553466 2.1113 0.00762971 60 4 1 2.3574e-06 
-0.367173 -0.466639 -3.76312 0.0025 0.663116 0.562692 2.1213 0.00754016 61 4 1 2.51789e-06 
-0.363425 -0.453431 -3.92571 0.0025 0.671184 0.5723 2.13158 0.00744952 62 4 1 2.61094e-06 
-0.359723 -0.439896 -4.08002 0.0025 0.679529 0.582282 2.14214 0.00735804 63 4 1 2.59697e-06 
-0.356066 -0.426144 -4.17117 0.0025 0.688085 0.592568 2.15288 0.00726654 64 4 1 2.54779e-06 
-0.352456 -0.412314 -4.2531 0.0025 0.696784 0.603079 2.16373 0.00717583 65 4 1 2.52314e-06 
-0.34889 -0.398453 -4.32288 0.0025 0.705591 0.613774 2.17462 0.00708626 66 4 1 2.42228e-06 
-0.345369 -0.384642 -4.33571 0.0025 0.714443 0.624577 2.18549 0.00699846 67 4 1 2.31804e-06 
-0.341892 -0.371045 -4.34701 0.0025 0.723289 0.635429 2.19627 0.00691287 68 4 1 2.28745e-06 
-0.338456 -0.357516 -4.37993 0.0025 0.732136 0.646335 2.20697 0.00682934 69 4 1 2.22554e-06 
-0.335062 -0.344187 -4.38185 0.0025 0.740973 0.657282 2.21759 0.00674788 70 4 1 2.16297e-06 
-0.331708 -0.330974 -4.39967 0.0025 0.749789 0.668255 2.2281 0.00666854 71 4 1 2.09596e-06 
-0.328393 -0.317952 -4.39076 0.0025 0.758575 0.679241 2.23851 0.00659131 72 4 1 2.02761e-06 
-0.325116 -0.305126 -4.3911 0.0025 0.767318 0.690226 2.24879 0.0065162 73 4 1 2.01579e-06 
-0.321877 -0.292411 -4.41863 0.0025 0.776046 0.701241 2.25898 0.00644292 74 4 1 1.97751e-06 
-0.318673 -0.279853 -4.42503 0.0025 0.784763 0.712292 2.26909 0.00637135 75 4 1 1.92243e-06 
-0.315505 -0.267444 -4.43661 0.0025 0.793458 0.723363 2.27911 0.00630153 76 4 1 1.85586e-06 
-0.312372 -0.255199 -4.42281 0.0025 0.802115 0.734434 2.28903 0.00623352 77 4 1 1.79031e-06 
-0.309272 -0.243115 -4.41455 0.0025 0.810722 0.745491 2.29882 0.00616734 78 4 1 1.78776e-06 
-0.306204 -0.23113 -4.44363 0.0025 0.819309 0.756569 2.30852 0.0061027 79 4 1 1.76376e-06 
-0.303169 -0.219302 -4.44987 0.0025 0.827888 0.767681 2.31816 0.00603946 80 4 1 1.71562e-06 
-0.300164 -0.207539 -4.4614 0.0025 0.836446 0.778812 2.32771 0.00597767 81 4 1 1.64275e-06 
-0.297191 -0.195959 -4.4354 0.0025 0.844961 0.789932 2.33716 0.00591743 82 4 1 1.60732e-06 
-0.294247 -0.184566 -4.44813 0.0025 0.853432 0.801041 2.3465 0.0058587 83 4 1 1.56703e-06 
-0.291332 -0.173272 -4.42515 0.0025 0.861865 0.812144 2.35575 0.00580137 84 4 1 1.57895e-06 
-0.288445 -0.162092 -4.48244 0.0025 0.870291 0.823281 2.36493 0.00574521 85 4 1 1.56502e-06 
-0.285587 -0.150986 -4.47764 0.0025 0.878722 0.834466 2.37407 0.00569008 86 4 1 1.475e-06 
-0.282755 -0.139975 -4.46658 0.0025 0.88711 0.845637 2.3831 0.00563628 87 4 1 1.42325e-06 
-0.27995 -0.129214 -4.44486 0.0025 0.895441 0.856774 2.39203 0.00558384 88 4 1 1.36807e-06 
-0.277171 -0.118516 -4.41923 0.0025 0.903705 0.867865 2.40083 0.00553278 89 4 1 1.34997e-06 
-0.274417 -0.108115 -4.41652 0.0025 0.911921 0.878935 2.40954 0.00548293 90 4 1 1.42963e-06 
-0.271688 -0.0975621 -4.50716 0.0025 0.92017 0.890081 2.41823 0.00543378 91 4 1 1.32528e-06 
-0.268983 -0.0872572 -4.42782 0.0025 0.928395 0.901242 2.42685 0.00538564 92 4 1 1.41332e-06 
-0.266302 -0.0768396 -4.62364 0.0025 0.936645 0.912462 2.43546 0.0053382 93 4 1 9.52578e-07 
-0.263645 -0.066805 -4.08557 0.0025 0.944642 0.923378 2.44375 0.00529301 94 4 1 8.86096e-07 
-0.261009 -0.0576723 -4.23755 0.0025 0.952362 0.934 2.4517 0.0052501 95 4 1 1.88245e-06 
-0.258395 -0.0473308 -4.97852 0.0025 0.960575 0.945275 2.46017 0.00520522 96 4 1 9.56878e-07 
-0.255804 -0.0371401 -4.04635 0.0025 0.968607 0.956305 2.46838 0.00516205 97 4 1 -2.32768e-07 
-0.253233 -0.0293189 -3.26208 0.0025 0.975573 0.966 2.47541 0.00512519 98 4 1 1.5718e-06 
-0.250679 -0.0208629 -4.76976 0.0025 0.982986 0.976368 2.48291 0.00508654 99 4 1 3.23843e-06 
-0.248146 -0.00912012 -6.09605 0.0025 0.992022 0.988865 2.49213 0.00504021 100 4 1 -1.67419e-07 
-0.245638 0.00138448 -3.32029 0.0025 0.999922 0.999744 2.50007 0.00500039 101 4 1 -3.70757e-06 
-0.243146 0.00465776 0.0217364 0.0025 1.00387 1.00539 2.50384 0.00498074 102 4 1 5.72363e-07 
-0.240658 0.00751632 -3.4842 0.0025 1.00785 1.01123 2.50776 0.00496106 103 4 1 6.04423e-06 
-0.238185 0.0194617 -7.4481 0.0025 1.01641 1.02312 2.51647 0.00491926 104 4 1 2.64072e-07 
-0.235738 0.0309682 -3.19813 0.0025 1.02463 1.03444 2.52464 0.00487982 105 4 1 -5.16769e-06 
-0.233305 0.0328684 0.38935 0.0025 1.02717 1.0381 2.52704 0.00486775 106 3 1 -2.79942e-06 
-0.23087 0.0313592 0.996728 0.0025 1.02613 1.03676 2.52598 0.00487266 107 4 1 -6.30013e-07 
-0.228432 0.0290867 1.17421 0.0025 1.02422 1.03408 2.52409 0.00488175 108 4 1 -1.46692e-07 
-0.225989 0.026572 1.247 0.0025 1.02203 1.03099 2.52193 0.00489221 109 4 1 -6.73903e-08 
-0.22354 0.0238592 1.34303 0.0025 1.01966 1.02764 2.51958 0.00490359 110 4 1 -4.17741e-08 
-0.221085 0.020932 1.44553 0.0025 1.01713 1.02407 2.51707 0.0049158 111 4 1 2.17834e-08 
-0.218624 0.0178388 1.51371 0.0025 1.01449 1.02036 2.51445 0.00492858 112 4 1 1.26344e-07 
-0.216157 0.0147037 1.51171 0.0025 1.01186 1.01666 2.51183 0.00494138 113 4 1 2.40514e-07 
-0.213683 0.0116909 1.42683 0.0025 1.00937 1.01317 2.50935 0.00495356 114 4 1 3.30455e-07 
-0.211203 0.00895633 1.27027 0.0025 1.00714 1.01003 2.50713 0.00496453 115 4 1 3.76403e-07 
-0.208718 0.00661077 1.06869 0.0025 1.00525 1.00738 2.50524 0.00497389 116 4 1 3.76583e-07 
-0.206229 0.00470411 0.852703 0.0025 1.00372 1.00523 2.50371 0.00498145 117 4 1 3.41875e-07 
-0.203737 0.00322981 0.647876 0.0025 1.00255 1.00358 2.50254 0.00498729 118 4 1 2.87613e-07 
-0.201242 0.00214136 0.470513 0.0025 1.00169 1.00237 2.50168 0.00499158 119 4 1 2.27452e-07 
-0.198745 0.00137161 0.327626 0.0025 1.00108 1.00152 2.50107 0.00499461 120 4 1 1.70732e-07 
-0.196247 0.000848843 0.219219 0.0025 1.00067 1.00094 2.50066 0.00499667 121 4 1 1.22412e-07 
-0.193748 0.00050732 0.141141 0.0025 1.0004 1.00056 2.5004 0.00499801 122 4 1 8.41559e-08 
-0.191249 0.000292517 0.0874798 0.0025 1.00023 1.00032 2.50023 0.00499885 123 4 1 5.55892e-08 
-0.18875 0.000162448 0.0521774 0.0025 1.00013 1.00018 2.50013 0.00499936 124 4 1 3.53072e-08 
-0.18625 8.66801e-05 0.0299133 0.0025 1.00007 1.0001 2.50007 0.00499966 125 4 1 2.1557e-08 
-0.18375 4.429e-05 0.0164496 0.0025 1.00003 1.00005 2.50003 0.00499983 126 4 1 1.26381e-08 
-0.18125 2.15701e-05 0.00864978 0.0025 1.00002 1.00002 2.50002 0.00499991 127 4 1 7.1004e-09 
-0.17875 9.94769e-06 0.00432979 0.0025 1.00001 1.00001 2.50001 0.00499996 128 4 1 3.81167e-09 
-0.17625 4.30327e-06 0.0020499 0.0025 1 1 2.5 0.00499998 129 4 1 1.94689e-09 
-0.17375 1.72092e-06 0.000909108 0.0025 1 1 2.5 0.00499999 130 4 1 9.40406e-10 
-0.17125 6.2099e-07 0.000371961 0.0025 1 1 2.5 0.005 131 4 1 4.25711e-10 
-0.16875 1.93131e-07 0.000136681 0.0025 1 1 2.5 0.005 132 4 1 1.78058e-10 
-0.16625 4.64434e-08 4.28666e-05 0.0025 1 1 2.5 0.005 133 4 1 6.69252e-11 
-0.16375 5.54124e-09 9.76379e-06 0.0025 1 1 2.5 0.005 134 4 1 2.21692e-11 
-0.16125 -1.32132e-09 -3.5722e-07 0.0025 1 1 2.5 0.005 135 5 1 5.34927e-12 
-0.15875 1.08194e-09 -1.09893e-06 0.0025 1 1 2.5 0.005 136 4 1 -4.62516e-13 
-0.15625 1.59947e-09 8.24359e-08 0.0025 1 1 2.5 0.005 137 3 1 -6.02314e-13 
-0.15375 1.14778e-09 2.81596e-07 0.0025 1 1 2.5 0.005 138 4 1 -2.86469e-14 
-0.15125 6.39038e-10 2.32894e-07 0.0025 1 1 2.5 0.005 139 4 1 1.05789e-13 
-0.14875 2.98312e-10 1.3793e-07 0.0025 1 1 2.5 0.005 140 4 1 9.95684e-14 
-0.14625 1.18028e-10 6.68488e-08 0.0025 1 1 2.5 0.005 141 4 1 6.21974e-14 
-0.14375 3.8301e-11 2.70877e-08 0.0025 1 1 2.5 0.005 142 4 1 3.12014e-14 
-0.14125 9.09546e-12 8.82278e-09 0.0025 1 1 2.5 0.005 143 4 1 1.29322e-14 
-0.13875 8.32286e-13 2.00737e-09 0.0025 1 1 2.5 0.005 144 4 1 4.46967e-15 
-0.13625 -3.40125e-13 -2.26919e-10 0.0025 1 1 2.5 0.005 145 5 1 1.00329e-15 
-0.13375 1.85559e-13 -2.08388e-10 0.0025 1 1 2.5 0.005 146 4 1 -1.68754e-16 
-0.13125 2.7637e-13 2.94449e-11 0.0025 1 1 2.5 0.005 147 3 1 -9.66338e-17 
-0.12875 1.68599e-13 6.39488e-11 0.0025 1 1 2.5 0.005 148 4 1 1.42109e-18 
-0.12625 7.48015e-14 4.08704e-11 0.0025 1 1 2.5 0.005 149 4 1 2.8777e-17 
-0.12375 2.59577e-14 1.51772e-11 0.0025 1 1 2.5 0.005 150 4 1 1.35003e-17 
-0.12125 2.76791e-15 8.12861e-12 0.0025 1 1 2.5 0.005 151 4 1 1.20792e-17 
-0.11875 -7.31193e-16 -6.82121e-13 0.0025 1 1 2.5 0.005 152 5 1 7.10543e-19 
-0.11625 -5.22221e-17 -1.7053e-13 0.0025 1 1 2.5 0.005 153 5 1 -1.42109e-18 
-0.11375 -1.0299e-47 -3.36312e-44 0.0025 1 1 2.5 0.005 154 5 1 -1.42109e-18 
-0.11125 0 0 0.0025 1 1 2.5 0.005 155 5 1 -1.42109e-18 
-0.10875 -7.20924e-47 -3.36312e-44 0.0025 1 1 2.5 0.005 156 5 1 -1.42109e-18 
-0.10625 -6.9602e-17 -3.36312e-44 0.0025 1 1 2.5 0.005 157 5 1 -1.42109e-18 
-0.10375 -2.08964e-16 0 0.0025 1 1 2.5 0.005 158 5 1 -1.42109e-18 
-0.10125 -3.48264e-16 3.36312e-44 0.0025 1 1 2.5 0.005 159 5 1 -1.42109e-18 
-0.09875 -4.87877e-16 0 0.0025 1 1 2.5 0.005 160 5 1 -1.42109e-18 
-0.09625 -5.9243e-16 -1.13687e-13 0.0025 1 1 2.5 0.005 161 5 1 -1.42109e-18 
-0.09375 -7.31719e-16 1.13687e-13 0.0025 1 1 2.5 0.005 162 5 1 -1.42109e-18 
-0.09125 -8.70898e-16 -1.13687e-13 0.0025 1 1 2.5 0.005 163 5 1 -1.42109e-18 
-0.08875 -1.07971e-15 1.13687e-13 0.0025 1 1 2.5 0.005 164 5 1 -1.42109e-18 
-0.08625 -1.28807e-15 -1.13687e-13 0.0025 1 1 2.5 0.005 165 5 1 -1.77636e-18 
-0.08375 -1.75733e-15 5.68434e-14 0.0025 1 1 2.5 0.005 166 5 1 -7.10543e-19 
-0.08125 1.4013e-15 -1.13687e-13 0.0025 1 1 2.5 0.005 167 5 1 -3.55271e-18 
-0.07875 -1.46865e-15 -5.68434e-14 0.0025 1 1 2.5 0.005 168 5 1 6.03961e-18 
-0.07625 -1.57496e-15 -1.7053e-13 0.0025 1 1 2.5 0.005 169 5 1 -1.38556e-17 
-0.07375 -3.56597e-15 3.13891e-43 0.0025 1 1 2.5 0.005 170 5 1 1.27898e-17 
-0.07125 1.12295e-15 2.27374e-13 0.0025 1 1 2.5 0.005 171 5 1 -2.13163e-17 
-0.06875 -8.09211e-16 1.13687e-13 0.0025 1 1 2.5 0.005 172 5 1 2.06057e-17 
-0.06625 -2.52852e-15 -1.13687e-13 0.0025 1 1 2.5 0.005 173 5 1 -2.20268e-17 
-0.06375 1.84e-15 6.82121e-13 0.0025 1 1 2.5 0.005 174 4 1 -1.42109e-18 
-0.06125 1.17305e-16 5.68434e-13 0.0025 1 1 2.5 0.005 175 3 1 3.05533e-17 
-0.05875 4.41165e-16 -7.38964e-13 0.0025 1 1 2.5 0.005 176 4 1 -1.81188e-17 
-0.05625 -2.54298e-15 -3.41061e-13 0.0025 1 1 2.5 0.005 177 5 1 -3.19744e-18 
-0.05375 3.67866e-16 5.68434e-13 0.0025 1 1 2.5 0.005 178 4 1 1.06581e-18 
-0.05125 2.73133e-16 -3.97904e-13 0.0025 1 1 2.5 0.005 179 5 1 -1.42109e-18 
-0.04875 1.7143e-15 1.13687e-13 0.0025 1 1 2.5 0.005 180 5 1 -3.90799e-18 
-0.04625 1.49433e-15 -1.34525e-43 0.0025 1 1 2.5 0.005 181 5 1 -7.10543e-19 
-0.04375 -2.41976e-16 5.68434e-14 0.0025 1 1 2.5 0.005 182 5 1 -3.55271e-19 
-0.04125 -3.54622e-16 5.68434e-14 0.0025 1 1 2.5 0.005 183 5 1 -6.39488e-18 
-0.03875 -2.68238e-15 1.13687e-13 0.0025 1 1 2.5 0.005 184 5 1 6.39488e-18 
-0.03625 -1.22546e-15 1.13687e-13 0.0025 1 1 2.5 0.005 185 5 1 -1.38556e-17 
-0.03375 -2.80914e-15 1.13687e-13 0.0025 1 1 2.5 0.005 186 4 1 -7.81597e-18 
-0.03125 -7.24542e-16 -1.13687e-13 0.0025 1 1 2.5 0.005 187 3 1 4.36984e-17 
-0.02875 -2.35022e-15 5.68434e-14 0.0025 1 1 2.5 0.005 188 4 1 -3.41061e-17 
-0.02625 -2.78425e-15 -1.25056e-12 0.0025 1 1 2.5 0.005 189 5 1 8.52651e-18 
-0.02375 -2.2725e-15 1.93268e-12 0.0025 1 1 2.5 0.005 190 3 1 -7.10543e-19 
-0.02125 -1.17056e-15 -1.25056e-12 0.0025 1 1 2.5 0.005 191 4 1 4.61853e-18 
-0.01875 -1.79083e-15 -5.68434e-14 0.0025 1 1 2.5 0.005 192 5 1 -6.75016e-18 
-0.01625 -1.69296e-15 -1.2819e-27 0.0025 1 1 2.5 0.005 193 4 1 3.77482e-33 
-0.01375 1.78665e-17 3.41061e-13 0.0025 1 1 2.5 0.005 194 3 1 2.84217e-18 
-0.01125 -2.61891e-16 4.54747e-13 0.0025 1 1 2.5 0.005 195 4 1 -1.42109e-18 
-0.00875 -7.92831e-16 -3.41061e-13 0.0025 1 1 2.5 0.005 196 5 1 7.47261e-33 
-0.00625 -6.55861e-16 5.11591e-13 0.0025 1 1 2.5 0.005 197 3 1 7.10543e-19 
-0.00375 -5.51521e-16 -2.27374e-13 0.0025 1 1 2.5 0.005 198 4 1 1.2326e-33 
-0.00125 -4.89352e-16 2.27374e-13 0.0025 1 1 2.5 0.005 199 5 1 -1.06581e-18 
0.00125 -5.64917e-16 -3.41061e-13 0.0025 1 1 2.5 0.005 200 4 1 1.2326e-33 
0.00375 -5.58691e-16 1.13687e-13 0.0025 1 1 2.5 0.005 201 4 1 -7.10543e-19 
0.00625 -5.24096e-16 4.54747e-13 0.0025 1 1 2.5 0.005 202 4 1 1.42109e-18 
0.00875 -1.12674e-15 -1.13687e-13 0.0025 1 1 2.5 0.005 203 5 1 3.55271e-19 
0.01125 -6.4637e-16 -3.41061e-13 0.0025 1 1 2.5 0.005 204 3 1 2.13163e-18 
0.01375 -5.58304e-16 -5.68434e-14 0.0025 1 1 2.5 0.005 205 4 1 -4.26326e-18 
0.01625 -1.3754e-15 -5.68434e-14 0.0025 1 1 2.5 0.005 206 4 1 2.4869e-18 
0.01875 2.97533e-16 5.68434e-14 0.0025 1 1 2.5 0.005 207 4 1 -5.32907e-18 
0.02125 -3.59668e-16 -6.21228e-28 0.0025 1 1 2.5 0.005 208 3 1 6.75016e-18 
0.02375 -1.73478e-16 5.68434e-14 0.0025 1 1 2.5 0.005 209 3 1 7.10543e-19 
0.02625 2.61479e-15 1.13687e-13 0.0025 1 1 2.5 0.005 210 4 1 -2.13163e-18 
0.02875 1.71918e-15 5.68434e-14 0.0025 1 1 2.5 0.005 211 4 1 -3.90799e-18 
0.03125 4.40061e-15 1.13687e-13 0.0025 1 1 2.5 0.005 212 3 1 1.77636e-18 
0.03375 3.45532e-15 1.13687e-13 0.0025 1 1 2.5 0.005 213 4 1 9.9476e-18 
0.03625 2.08169e-15 1.13687e-13 0.0025 1 1 2.5 0.005 214 5 1 -1.84741e-17 
0.03875 6.51747e-16 5.68434e-14 0.0025 1 1 2.5 0.005 215 4 1 1.81188e-17 
0.04125 1.5049e-15 1.13687e-13 0.0025 1 1 2.5 0.005 216 4 1 -1.52767e-17 
0.04375 2.52737e-16 -1.45939e-27 0.0025 1 1 2.5 0.005 217 4 1 -3.55271e-19 
0.04625 3.22544e-15 -2.27374e-13 0.0025 1 1 2.5 0.005 218 4 1 4.26326e-18 
0.04875 1.63743e-15 5.68434e-14 0.0025 1 1 2.5 0.005 219 4 1 -4.26326e-18 
0.05125 4.19572e-15 1.93268e-12 0.0025 1 1 2.5 0.005 220 5 1 4.61853e-18 
0.05375 4.57295e-15 -3.80851e-12 0.0025 1 1 2.5 0.005 221 3 1 -3.55271e-19 
0.05625 1.77927e-15 2.04636e-12 0.0025 1 1 2.5 0.005 222 4 1 1.52767e-17 
0.05875 4.19423e-15 -1.25056e-12 0.0025 1 1 2.5 0.005 223 5 1 -6.43041e-17 
0.06125 -1.29364e-17 9.09495e-13 0.0025 1 1 2.5 0.005 224 4 1 5.57776e-17 
0.06375 8.1124e-15 -1.13687e-13 0.0025 1 1 2.5 0.005 225 4 1 7.81597e-18 
0.06625 3.1281e-15 2.66241e-26 0.0025 1 1 2.5 0.005 226 5 1 -3.01981e-17 
0.06875 6.37705e-15 5.68434e-14 0.0025 1 1 2.5 0.005 227 5 1 1.88294e-17 
0.07125 2.75186e-15 -1.13687e-13 0.0025 1 1 2.5 0.005 228 5 1 -1.49214e-17 
0.07375 4.61578e-15 -5.68434e-14 0.0025 1 1 2.5 0.005 229 5 1 8.88178e-18 
0.07625 4.59845e-15 6.72623e-44 0.0025 1 1 2.5 0.005 230 5 1 -1.35003e-17 
0.07875 6.01639e-15 5.68434e-14 0.0025 1 1 2.5 0.005 231 5 1 8.88178e-18 
0.08125 4.84852e-15 5.68434e-14 0.0025 1 1 2.5 0.005 232 5 1 -1.03029e-17 
