# Time [s]: 0.212633
# Columns: pos [m], vel [m/s], acc [m/s^2], mass [kg], dens [kg/m^3], pres [Pa], ene [J/kg], sml [m], id, neighbor, alpha, gradh, ...additional?
1.35911 -0.673166 0.00153455 0.0025 0.511006 0.432673 2.15243 0.00978463 0 4 1 -0.000134227 
1.36389 -0.673174 0.00166302 0.0025 0.536857 0.426133 1.94997 0.00931346 1 4 1 0.000179243 
1.36843 -0.673182 0.00179073 0.0025 0.548183 0.430799 1.96842 0.00912105 2 3 1 -1.90589e-05 
1.37301 -0.67319 0.00192221 0.0025 0.545914 0.42913 1.96456 0.00915895 3 5 1 3.48624e-06 
1.37759 -0.6732 0.00205301 0.0025 0.546308 0.42928 1.96449 0.00915235 4 4 1 -1.39008e-07 
1.38216 -0.67321 0.00218184 0.0025 0.546314 0.429245 1.96425 0.00915225 5 4 1 1.43353e-07 
1.38674 -0.673221 0.0023098 0.0025 0.546332 0.429238 1.96419 0.00915195 6 4 1 -3.90074e-09 
1.39131 -0.673234 0.00244442 0.0025 0.54634 0.42923 1.96411 0.00915182 7 4 1 7.80506e-09 
1.39589 -0.673247 0.00260482 0.0025 0.546348 0.429223 1.96405 0.00915168 8 4 1 4.2511e-09 
1.40047 -0.673262 0.00281835 0.0025 0.546354 0.429215 1.964 0.00915157 9 4 1 4.81522e-09 
1.40504 -0.673279 0.00310528 0.0025 0.546359 0.429208 1.96395 0.0091515 10 4 1 -3.09254e-09 
1.40962 -0.673296 0.003465 0.0025 0.546362 0.429199 1.96389 0.00915143 11 4 1 3.6818e-09 
1.41419 -0.673315 0.00388064 0.0025 0.546364 0.429189 1.96384 0.0091514 12 3 1 1.64305e-09 
1.41877 -0.673335 0.00433627 0.0025 0.546364 0.429179 1.96379 0.00915141 13 4 1 2.23618e-09 
1.42334 -0.673356 0.00482358 0.0025 0.546361 0.429167 1.96375 0.00915145 14 4 1 6.79282e-10 
1.42792 -0.67338 0.00533477 0.0025 0.546357 0.429153 1.96371 0.00915153 15 4 1 -3.11214e-09 
1.4325 -0.673405 0.00586871 0.0025 0.546351 0.429139 1.96366 0.00915162 16 4 1 3.26192e-09 
1.43707 -0.673433 0.00645938 0.0025 0.546343 0.429122 1.96361 0.00915176 17 4 1 -3.70514e-10 
1.44165 -0.673464 0.00718339 0.0025 0.546333 0.429104 1.96357 0.00915194 18 4 1 -3.42861e-09 
1.44622 -0.673498 0.00810052 0.0025 0.54632 0.429084 1.96352 0.00915214 19 4 1 -1.85629e-11 
1.4508 -0.673536 0.00916486 0.0025 0.546305 0.429062 1.96347 0.00915239 20 4 1 -1.90375e-09 
1.45538 -0.673576 0.0102252 0.0025 0.546287 0.429036 1.96342 0.0091527 21 4 1 -1.94286e-09 
1.45995 -0.673622 0.0111839 0.0025 0.546265 0.429008 1.96337 0.00915306 22 4 1 -2.03309e-09 
1.46453 -0.673675 0.0121922 0.0025 0.546241 0.428976 1.96331 0.00915347 23 4 1 -3.63392e-09 
1.46911 -0.673735 0.0136149 0.0025 0.546214 0.428942 1.96325 0.00915393 24 4 1 -3.10926e-09 
1.47368 -0.673803 0.0156785 0.0025 0.546182 0.428903 1.96319 0.00915446 25 4 1 -5.33557e-09 
1.47826 -0.673877 0.0181562 0.0025 0.546145 0.428858 1.96312 0.00915508 26 4 1 -7.39006e-09 
1.48284 -0.67396 0.0205577 0.0025 0.546101 0.428807 1.96304 0.00915581 27 4 1 -5.84264e-09 
1.48742 -0.674054 0.0227057 0.0025 0.546052 0.428749 1.96295 0.00915664 28 4 1 -6.02045e-09 
1.49199 -0.674163 0.0250427 0.0025 0.545996 0.428684 1.96286 0.00915758 29 4 1 -8.44236e-09 
1.49657 -0.674288 0.0283077 0.0025 0.545934 0.428613 1.96275 0.00915862 30 4 1 -9.29144e-09 
-0.498847 -0.674429 0.0327641 0.0025 0.545863 0.428531 1.96264 0.00915982 31 4 1 -9.95174e-09 
-0.494267 -0.674584 0.037574 0.0025 0.545781 0.428439 1.96251 0.00916118 32 4 1 -1.26554e-08 
-0.489686 -0.674754 0.0414993 0.0025 0.545689 0.428336 1.96237 0.00916272 33 4 1 -9.80736e-09 
-0.485104 -0.674944 0.0445441 0.0025 0.54559 0.428224 1.96221 0.0091644 34 4 1 -3.16981e-09 
-0.480522 -0.67515 0.0472004 0.0025 0.545485 0.428107 1.96205 0.00916616 35 4 1 -1.1317e-09 
-0.475938 -0.675365 0.0485053 0.0025 0.545379 0.427989 1.96189 0.00916794 36 4 1 5.17649e-09 
-0.471354 -0.675576 0.0475426 0.0025 0.545278 0.427876 1.96173 0.00916964 37 4 1 1.82805e-08 
-0.466768 -0.675762 0.0419953 0.0025 0.545189 0.427778 1.9616 0.00917112 38 4 1 2.42418e-08 
-0.462183 -0.675901 0.0329378 0.0025 0.545121 0.427703 1.96149 0.00917227 39 4 1 5.95201e-08 
-0.457596 -0.676013 0.00537826 0.0025 0.545103 0.427682 1.96146 0.00917258 40 5 1 9.46245e-08 
-0.45301 -0.675854 -0.0341224 0.0025 0.545162 0.427744 1.96153 0.00917159 41 4 1 8.09228e-08 
-0.448425 -0.675748 -0.0211347 0.0025 0.545292 0.427898 1.96171 0.00916941 42 4 1 4.00283e-07 
-0.443841 -0.675137 -0.287369 0.0025 0.545749 0.428421 1.96236 0.00916173 43 4 1 1.06109e-06 
-0.439263 -0.672792 -0.786183 0.0025 0.547005 0.429807 1.96416 0.00914068 44 4 1 1.34542e-06 
-0.4347 -0.668519 -1.14488 0.0025 0.549171 0.432181 1.96726 0.00910463 45 4 1 1.24932e-06 
-0.430158 -0.663068 -1.36874 0.0025 0.552043 0.435351 1.97137 0.00905726 46 4 1 1.56708e-06 
-0.425643 -0.656349 -1.776 0.0025 0.555681 0.439388 1.97654 0.00899797 47 4 1 2.3996e-06 
-0.42116 -0.64748 -2.37436 0.0025 0.560408 0.444639 1.98325 0.00892208 48 4 1 3.16457e-06 
-0.41672 -0.636272 -2.96703 0.0025 0.566378 0.45128 1.99167 0.00882803 49 4 1 3.59721e-06 
-0.412332 -0.622948 -3.45697 0.0025 0.573469 0.459197 2.00161 0.00871887 50 4 1 3.64252e-06 
-0.408001 -0.608228 -3.75034 0.0025 0.581368 0.468058 2.01259 0.0086004 51 4 1 3.34576e-06 
-0.403731 -0.592977 -3.85213 0.0025 0.589684 0.477443 2.02406 0.00847912 52 4 1 3.03144e-06 
-0.399521 -0.577701 -3.89442 0.0025 0.598138 0.487042 2.03561 0.00835928 53 4 1 2.67716e-06 
-0.395371 -0.562726 -3.82045 0.0025 0.606533 0.496629 2.04699 0.00824358 54 4 1 2.32205e-06 
-0.391277 -0.548329 -3.72369 0.0025 0.614723 0.50604 2.05799 0.00813374 55 4 1 2.09186e-06 
-0.387237 -0.534538 -3.6262 0.0025 0.622674 0.515223 2.06859 0.00802988 56 4 1 1.86869e-06 
-0.383247 -0.521325 -3.49832 0.0025 0.630362 0.524151 2.07877 0.00793194 57 4 1 1.78408e-06 
-0.379305 -0.508679 -3.44252 0.0025 0.637839 0.532879 2.08859 0.00783897 58 4 1 1.87266e-06 
-0.375408 -0.496244 -3.45391 0.0025 0.645236 0.541557 2.09824 0.0077491 59 4 1 2.0277e-06 
-0.371555 -0.483851 -3.53201 0.0025 0.652692 0.550344 2.1079 0.00766058 60 4 1 2.25288e-06 
-0.367747 -0.471202 -3.68505 0.0025 0.660341 0.559398 2.11774 0.00757184 61 4 1 2.44657e-06 
-0.363983 -0.458194 -3.84819 0.0025 0.668265 0.568818 2.12787 0.00748206 62 4 1 2.55959e-06 
-0.360265 -0.444851 -4.00683 0.0025 0.676471 0.578618 2.13828 0.00739129 63 4 1 2.57937e-06 
-0.356592 -0.431222 -4.11793 0.0025 0.684912 0.588747 2.14891 0.00730021 64 4 1 2.53724e-06 
-0.352964 -0.417493 -4.20031 0.0025 0.693515 0.599123 2.15966 0.00720965 65 4 1 2.50593e-06 
-0.349382 -0.40372 -4.27453 0.0025 0.702237 0.609695 2.17048 0.0071201 66 4 1 2.44653e-06 
-0.345844 -0.389943 -4.31659 0.0025 0.711033 0.620409 2.18131 0.00703202 67 4 1 2.31584e-06 
-0.342349 -0.376345 -4.30566 0.0025 0.719831 0.631181 2.19207 0.00694607 68 4 1 2.278e-06 
-0.338897 -0.362867 -4.35393 0.0025 0.728628 0.642004 2.20274 0.00686222 69 4 1 2.22614e-06 
-0.335487 -0.349534 -4.34735 0.0025 0.737421 0.652875 2.21333 0.00678039 70 4 1 2.15925e-06 
-0.332117 -0.336349 -4.37315 0.0025 0.746194 0.663773 2.22382 0.00670067 71 4 1 2.10934e-06 
-0.328786 -0.323319 -4.37072 0.0025 0.754947 0.674696 2.23422 0.00662298 72 4 1 2.01905e-06 
-0.325494 -0.310485 -4.35807 0.0025 0.763653 0.685615 2.24448 0.00654747 73 4 1 2.00456e-06 
-0.322238 -0.297807 -4.38887 0.0025 0.772337 0.696554 2.25466 0.00647386 74 4 1 1.97974e-06 
-0.31902 -0.285258 -4.39789 0.0025 0.781015 0.707534 2.26475 0.00640193 75 4 1 1.92202e-06 
-0.315836 -0.272864 -4.40899 0.0025 0.789672 0.718536 2.27476 0.00633174 76 4 1 1.85905e-06 
-0.312688 -0.260604 -4.39947 0.0025 0.798295 0.729542 2.28466 0.00626335 77 4 1 1.78503e-06 
-0.309573 -0.248504 -4.38433 0.0025 0.806866 0.740531 2.29444 0.00619682 78 4 1 1.78379e-06 
-0.306491 -0.236559 -4.41733 0.0025 0.815414 0.751538 2.30413 0.00613185 79 4 1 1.7486e-06 
-0.303441 -0.224728 -4.40781 0.0025 0.823947 0.762569 2.31374 0.00606835 80 4 1 1.71759e-06 
-0.300422 -0.212993 -4.43996 0.0025 0.832463 0.773625 2.32327 0.00600627 81 4 1 1.67422e-06 
-0.297434 -0.201389 -4.42714 0.0025 0.840959 0.784699 2.33273 0.0059456 82 4 1 1.59248e-06 
-0.294476 -0.189993 -4.40935 0.0025 0.8494 0.795747 2.34206 0.00588651 83 4 1 1.56133e-06 
-0.291548 -0.178682 -4.40917 0.0025 0.857797 0.806782 2.35129 0.00582889 84 4 1 1.56539e-06 
-0.288647 -0.167555 -4.43366 0.0025 0.866179 0.817841 2.36045 0.00577248 85 4 1 1.54596e-06 
-0.285775 -0.156451 -4.44395 0.0025 0.874556 0.828935 2.36956 0.00571719 86 4 1 1.52179e-06 
-0.28293 -0.145451 -4.47009 0.0025 0.882927 0.84006 2.3786 0.00566298 87 4 1 1.41832e-06 
-0.280112 -0.134634 -4.4056 0.0025 0.891239 0.851152 2.38753 0.00561017 88 4 1 1.3984e-06 
-0.27732 -0.123948 -4.44441 0.0025 0.899498 0.862213 2.39636 0.00555866 89 4 1 1.31124e-06 
-0.274553 -0.113474 -4.33922 0.0025 0.907681 0.873216 2.40505 0.00550854 90 4 1 1.39478e-06 
-0.271811 -0.10308 -4.48769 0.0025 0.915864 0.884257 2.4137 0.00545933 91 4 1 1.34862e-06 
-0.269094 -0.0926437 -4.38322 0.0025 0.924052 0.895343 2.4223 0.00541095 92 4 1 1.35591e-06 
-0.2664 -0.0824757 -4.54411 0.0025 0.932237 0.906468 2.43087 0.00536344 93 4 1 1.31017e-06 
-0.26373 -0.0720206 -4.43311 0.0025 0.940406 0.917585 2.43937 0.00531685 94 4 1 6.90481e-07 
-0.261083 -0.0626337 -3.92285 0.0025 0.948154 0.928202 2.44737 0.00527341 95 4 1 1.32326e-06 
-0.258457 -0.05325 -4.61503 0.0025 0.955971 0.938962 2.45542 0.00523029 96 4 1 1.81536e-06 
-0.255853 -0.0425853 -4.78961 0.0025 0.964257 0.950324 2.46395 0.00518534 97 4 1 2.31233e-07 
-0.253271 -0.0334001 -3.51399 0.0025 0.971816 0.960749 2.47163 0.00514501 98 4 1 1.01427e-07 
-0.250708 -0.0259126 -3.54903 0.0025 0.978619 0.970261 2.47848 0.00510924 99 4 1 2.51901e-06 
-0.248162 -0.0163415 -5.50467 0.0025 0.986619 0.981414 2.48661 0.00506781 100 4 1 2.62473e-06 
-0.24564 -0.00419485 -5.60146 0.0025 0.995703 0.993935 2.49585 0.00502158 101 4 1 -2.0894e-06 
-0.24314 0.00387948 -1.61388 0.0025 1.00215 1.00286 2.50225 0.00498929 102 4 1 -3.08664e-06 
-0.24065 0.00530969 -0.3728 0.0025 1.00523 1.00741 2.50514 0.004974 103 4 1 3.27695e-06 
-0.238166 0.0111925 -5.61704 0.0025 1.01074 1.01529 2.5107 0.00494686 104 4 1 5.18588e-06 
-0.235703 0.0248298 -6.63619 0.0025 1.02006 1.02813 2.52013 0.00490166 105 4 1 -2.80872e-06 
-0.233264 0.032541 -1.13642 0.0025 1.02626 1.03674 2.52622 0.00487205 106 4 1 -4.81552e-06 
-0.230831 0.0324306 0.675651 0.0025 1.02694 1.03784 2.5268 0.00486882 107 3 1 -1.63168e-06 
-0.228396 0.0304861 1.1138 0.0025 1.02541 1.03575 2.52526 0.0048761 108 4 1 -3.56718e-07 
-0.225955 0.0280787 1.20966 0.0025 1.02335 1.03284 2.52322 0.00488593 109 4 1 -9.47006e-08 
-0.22351 0.0254714 1.291 0.0025 1.02107 1.02963 2.52097 0.00489682 110 4 1 -4.95233e-08 
-0.221058 0.0226668 1.38598 0.0025 1.01863 1.02618 2.51856 0.00490856 111 4 1 -1.37996e-08 
-0.218601 0.0196704 1.4739 0.0025 1.01605 1.02255 2.516 0.00492101 112 4 1 6.48996e-08 
-0.216137 0.0165592 1.51334 0.0025 1.01342 1.01885 2.51338 0.0049338 113 4 1 1.72844e-07 
-0.213667 0.0134726 1.47772 0.0025 1.01085 1.01523 2.51082 0.00494636 114 4 1 2.77202e-07 
-0.211191 0.0105717 1.36363 0.0025 1.00846 1.01188 2.50844 0.00495805 115 4 1 3.49327e-07 
-0.208709 0.00799456 1.18848 0.0025 1.00637 1.00894 2.50635 0.00496837 116 4 1 3.76573e-07 
-0.206223 0.00582743 0.980663 0.0025 1.00462 1.00649 2.50461 0.00497699 117 4 1 3.62356e-07 
-0.203732 0.00409729 0.768896 0.0025 1.00324 1.00455 2.50323 0.00498385 118 4 1 3.19497e-07 
-0.201239 0.00278109 0.575072 0.0025 1.00219 1.00308 2.50219 0.00498906 119 4 1 2.6273e-07 
-0.198743 0.00182361 0.411714 0.0025 1.00144 1.00202 2.50143 0.00499283 120 4 1 2.0396e-07 
-0.196246 0.00115558 0.282933 0.0025 1.00091 1.00128 2.5009 0.00499546 121 4 1 1.50711e-07 
-0.193748 0.000707584 0.186987 0.0025 1.00056 1.00078 2.50055 0.00499722 122 4 1 1.06563e-07 
-0.191249 0.000418399 0.118967 0.0025 1.00033 1.00046 2.50033 0.00499836 123 4 1 7.2325e-08 
-0.188749 0.000238625 0.07288 0.0025 1.00019 1.00026 2.50019 0.00499906 124 4 1 4.71922e-08 
-0.18625 0.000131022 0.0429629 0.0025 1.0001 1.00015 2.5001 0.00499949 125 4 1 2.96155e-08 
-0.18375 6.9075e-05 0.0243363 0.0025 1.00005 1.00008 2.50005 0.00499973 126 4 1 1.7865e-08 
-0.18125 3.48378e-05 0.0132153 0.0025 1.00003 1.00004 2.50003 0.00499986 127 4 1 1.0345e-08 
-0.17875 1.67234e-05 0.00685585 0.0025 1.00001 1.00002 2.50001 0.00499993 128 4 1 5.73766e-09 
-0.17625 7.58626e-06 0.00338115 0.0025 1.00001 1.00001 2.50001 0.00499997 129 4 1 3.0381e-09 
-0.17375 3.21791e-06 0.00157389 0.0025 1 1 2.5 0.00499999 130 4 1 1.52867e-09 
-0.17125 1.25545e-06 0.000684078 0.0025 1 1 2.5 0.00499999 131 4 1 7.25995e-10 
-0.16875 4.37959e-07 0.000272811 0.0025 1 1 2.5 0.005 132 4 1 3.22158e-10 
-0.16625 1.29186e-07 9.67141e-05 0.0025 1 1 2.5 0.005 133 4 1 1.31423e-10 
-0.16375 2.78221e-08 2.84473e-05 0.0025 1 1 2.5 0.005 134 4 1 4.77469e-11 
-0.16125 1.76748e-09 5.95205e-06 0.0025 1 1 2.5 0.005 135 4 1 1.508e-11 
-0.15875 -7.85841e-10 -1.58262e-06 0.0025 1 1 2.5 0.005 136 5 1 2.95167e-12 
-0.15625 1.3583e-09 -5.58643e-07 0.0025 1 1 2.5 0.005 137 4 1 -8.33984e-13 
-0.15375 1.43107e-09 1.42552e-07 0.0025 1 1 2.5 0.005 138 3 1 -3.63134e-13 
-0.15125 9.49362e-10 2.6901e-07 0.0025 1 1 2.5 0.005 139 4 1 2.91973e-14 
-0.14875 5.02923e-10 1.9586e-07 0.0025 1 1 2.5 0.005 140 4 1 1.05135e-13 
-0.14625 2.25268e-10 1.09791e-07 0.0025 1 1 2.5 0.005 141 4 1 8.53799e-14 
-0.14375 8.52017e-11 5.08448e-08 0.0025 1 1 2.5 0.005 142 4 1 4.99746e-14 
-0.14125 2.60281e-11 1.95981e-08 0.0025 1 1 2.5 0.005 143 4 1 2.38721e-14 
-0.13875 5.45647e-12 5.95332e-09 0.0025 1 1 2.5 0.005 144 4 1 9.46727e-15 
-0.13625 1.61541e-13 1.19411e-09 0.0025 1 1 2.5 0.005 145 4 1 3.05036e-15 
-0.13375 -2.25079e-13 -4.15241e-10 0.0025 1 1 2.5 0.005 146 5 1 5.14788e-16 
-0.13125 2.49242e-13 -9.50422e-11 0.0025 1 1 2.5 0.005 147 4 1 -1.74438e-16 
-0.12875 2.39573e-13 4.49631e-11 0.0025 1 1 2.5 0.005 148 3 1 -7.38964e-17 
-0.12625 1.28275e-13 4.69527e-11 0.0025 1 1 2.5 0.005 149 4 1 1.84741e-17 
-0.12375 5.70564e-14 3.29123e-11 0.0025 1 1 2.5 0.005 150 4 1 2.02505e-17 
-0.12125 1.6576e-14 1.79625e-11 0.0025 1 1 2.5 0.005 151 4 1 1.77636e-17 
-0.11875 -1.21763e-16 1.19371e-12 0.0025 1 1 2.5 0.005 152 5 1 6.39488e-18 
-0.11625 -3.65646e-16 -2.84217e-13 0.0025 1 1 2.5 0.005 153 5 1 -3.55271e-19 
-0.11375 -1.74123e-17 -5.68434e-14 0.0025 1 1 2.5 0.005 154 5 1 -1.42109e-18 
-0.11125 -3.43397e-48 -1.12104e-44 0.0025 1 1 2.5 0.005 155 5 1 -1.42109e-18 
-0.10875 -1.13301e-46 -3.36312e-44 0.0025 1 1 2.5 0.005 156 5 1 -1.42109e-18 
-0.10625 -6.9602e-17 -3.36312e-44 0.0025 1 1 2.5 0.005 157 5 1 -1.42109e-18 
-0.10375 -2.08964e-16 0 0.0025 1 1 2.5 0.005 158 5 1 -1.42109e-18 
-0.10125 -3.48264e-16 0 0.0025 1 1 2.5 0.005 159 5 1 -1.42109e-18 
-0.09875 -4.87877e-16 0 0.0025 1 1 2.5 0.005 160 5 1 -1.42109e-18 
-0.09625 -6.27256e-16 3.36312e-44 0.0025 1 1 2.5 0.005 161 5 1 -1.42109e-18 
-0.09375 -7.66544e-16 0 0.0025 1 1 2.5 0.005 162 5 1 -1.42109e-18 
-0.09125 -8.70898e-16 -1.13687e-13 0.0025 1 1 2.5 0.005 163 5 1 -1.42109e-18 
-0.08875 -1.07971e-15 1.13687e-13 0.0025 1 1 2.5 0.005 164 5 1 -1.42109e-18 
-0.08625 -1.28807e-15 -1.13687e-13 0.0025 1 1 2.5 0.005 165 5 1 -1.77636e-18 
-0.08375 -1.75733e-15 5.68434e-14 0.0025 1 1 2.5 0.005 166 5 1 -7.10543e-19 
-0.08125 1.262e-15 -1.13687e-13 0.0025 1 1 2.5 0.005 167 5 1 -3.55271e-18 
-0.07875 -1.57313e-15 -1.7053e-13 0.0025 1 1 2.5 0.005 168 5 1 6.03961e-18 
-0.07625 -1.67944e-15 -5.68434e-14 0.0025 1 1 2.5 0.005 169 5 1 -1.38556e-17 
-0.07375 -3.63562e-15 2.69049e-43 0.0025 1 1 2.5 0.005 170 5 1 1.27898e-17 
-0.07125 1.29707e-15 1.13687e-13 0.0025 1 1 2.5 0.005 171 5 1 -2.02505e-17 
-0.06875 -6.52498e-16 5.68434e-14 0.0025 1 1 2.5 0.005 172 5 1 1.84741e-17 
-0.06625 -2.44146e-15 1.7053e-13 0.0025 1 1 2.5 0.005 173 5 1 -2.0961e-17 
-0.06375 2.5365e-15 4.54747e-13 0.0025 1 1 2.5 0.005 174 4 1 -1.42109e-18 
-0.06125 6.74505e-16 3.41061e-13 0.0025 1 1 2.5 0.005 175 3 1 2.98428e-17 
-0.05875 -2.20511e-16 -3.97904e-13 0.0025 1 1 2.5 0.005 176 4 1 -1.77636e-17 
-0.05625 -3.06536e-15 -4.54747e-13 0.0025 1 1 2.5 0.005 177 5 1 -3.19744e-18 
-0.05375 9.25067e-16 3.41061e-13 0.0025 1 1 2.5 0.005 178 4 1 1.06581e-18 
-0.05125 -7.5118e-17 -1.7053e-13 0.0025 1 1 2.5 0.005 179 5 1 -1.42109e-18 
-0.04875 1.80137e-15 5.68434e-14 0.0025 1 1 2.5 0.005 180 5 1 -3.90799e-18 
-0.04625 1.54657e-15 5.68434e-14 0.0025 1 1 2.5 0.005 181 5 1 -3.55271e-19 
-0.04375 -2.24564e-16 1.56945e-43 0.0025 1 1 2.5 0.005 182 5 1 -1.06581e-18 
-0.04125 -2.50147e-16 5.68434e-14 0.0025 1 1 2.5 0.005 183 5 1 -6.03961e-18 
-0.03875 -2.5779e-15 1.13687e-13 0.0025 1 1 2.5 0.005 184 5 1 6.39488e-18 
-0.03625 -1.08616e-15 1.13687e-13 0.0025 1 1 2.5 0.005 185 5 1 -1.38556e-17 
-0.03375 -2.63502e-15 2.27374e-13 0.0025 1 1 2.5 0.005 186 4 1 -7.81597e-18 
-0.03125 -1.12503e-15 -1.19371e-12 0.0025 1 1 2.5 0.005 187 3 1 4.47642e-17 
-0.02875 -2.85519e-15 1.02318e-12 0.0025 1 1 2.5 0.005 188 4 1 -3.51719e-17 
-0.02625 -2.52307e-15 -2.84217e-13 0.0025 1 1 2.5 0.005 189 5 1 7.81597e-18 
-0.02375 -1.33222e-15 4.54747e-13 0.0025 1 1 2.5 0.005 190 3 1 0 
-0.02125 -2.11083e-15 -6.82121e-13 0.0025 1 1 2.5 0.005 191 5 1 1.77636e-18 
-0.01875 -1.91272e-15 -1.13687e-13 0.0025 1 1 2.5 0.005 192 5 1 -7.10543e-18 
-0.01625 -1.79744e-15 -1.13687e-13 0.0025 1 1 2.5 0.005 193 4 1 7.10543e-19 
-0.01375 3.31292e-16 2.27374e-13 0.0025 1 1 2.5 0.005 194 3 1 2.84217e-18 
-0.01125 1.56009e-16 2.27374e-13 0.0025 1 1 2.5 0.005 195 4 1 -1.42109e-18 
-0.00875 -1.17591e-15 -3.41061e-13 0.0025 1 1 2.5 0.005 196 5 1 1.248e-32 
-0.00625 -2.55372e-16 1.13687e-13 0.0025 1 1 2.5 0.005 197 3 1 -7.10543e-19 
-0.00375 -3.07749e-16 5.68434e-13 0.0025 1 1 2.5 0.005 198 4 1 1.42109e-18 
-0.00125 -6.46062e-16 -3.97904e-13 0.0025 1 1 2.5 0.005 199 5 1 2.46519e-33 
0.00125 -6.86805e-16 -5.68434e-14 0.0025 1 1 2.5 0.005 200 3 1 0 
0.00375 -2.6268e-16 3.97904e-13 0.0025 1 1 2.5 0.005 201 4 1 -7.10543e-19 
0.00625 -4.54444e-16 -1.13687e-13 0.0025 1 1 2.5 0.005 202 5 1 1.48682e-32 
0.00875 -1.02227e-15 1.13687e-13 0.0025 1 1 2.5 0.005 203 4 1 3.55271e-19 
0.01125 -1.06427e-15 -3.41061e-13 0.0025 1 1 2.5 0.005 204 3 1 2.13163e-18 
0.01375 -6.27954e-16 -5.68434e-14 0.0025 1 1 2.5 0.005 205 4 1 -4.26326e-18 
0.01625 -1.44505e-15 -5.68434e-14 0.0025 1 1 2.5 0.005 206 4 1 2.4869e-18 
0.01875 3.14946e-16 -1.3312e-27 0.0025 1 1 2.5 0.005 207 4 1 -5.32907e-18 
0.02125 -3.59668e-16 -6.21228e-28 0.0025 1 1 2.5 0.005 208 3 1 6.75016e-18 
0.02375 -5.15911e-17 1.13687e-13 0.0025 1 1 2.5 0.005 209 3 1 7.10543e-19 
0.02625 2.75409e-15 1.13687e-13 0.0025 1 1 2.5 0.005 210 4 1 -1.77636e-18 
0.02875 1.84106e-15 1.13687e-13 0.0025 1 1 2.5 0.005 211 4 1 -3.90799e-18 
0.03125 4.59214e-15 1.7053e-13 0.0025 1 1 2.5 0.005 212 3 1 2.13163e-18 
0.03375 3.62944e-15 1.13687e-13 0.0025 1 1 2.5 0.005 213 4 1 9.9476e-18 
0.03625 2.18616e-15 1.13687e-13 0.0025 1 1 2.5 0.005 214 5 1 -1.84741e-17 
0.03875 7.21397e-16 5.68434e-14 0.0025 1 1 2.5 0.005 215 4 1 1.81188e-17 
0.04125 1.57455e-15 1.13687e-13 0.0025 1 1 2.5 0.005 216 4 1 -1.52767e-17 
0.04375 2.87562e-16 -1.45939e-27 0.0025 1 1 2.5 0.005 217 4 1 -3.55271e-19 
0.04625 2.99907e-15 -5.68434e-14 0.0025 1 1 2.5 0.005 218 4 1 3.90799e-18 
0.04875 1.72449e-15 1.45939e-27 0.0025 1 1 2.5 0.005 219 4 1 -4.9738e-18 
0.05125 5.84991e-15 8.52651e-13 0.0025 1 1 2.5 0.005 220 4 1 4.61853e-18 
0.05375 1.61282e-15 -1.64846e-12 0.0025 1 1 2.5 0.005 221 3 1 -1.06581e-18 
0.05625 3.29416e-15 8.52651e-13 0.0025 1 1 2.5 0.005 222 5 1 1.7053e-17 
0.05875 3.04501e-15 -5.68434e-13 0.0025 1 1 2.5 0.005 223 5 1 -6.60805e-17 
0.06125 8.40277e-16 5.11591e-13 0.0025 1 1 2.5 0.005 224 4 1 5.8975e-17 
0.06375 7.8338e-15 -3.41061e-13 0.0025 1 1 2.5 0.005 225 4 1 6.39488e-18 
0.06625 3.14552e-15 5.68434e-14 0.0025 1 1 2.5 0.005 226 5 1 -3.01981e-17 
0.06875 6.35964e-15 -1.13687e-13 0.0025 1 1 2.5 0.005 227 5 1 1.95399e-17 
0.07125 2.6648e-15 -5.68434e-14 0.0025 1 1 2.5 0.005 228 5 1 -1.66978e-17 
0.07375 4.63319e-15 1.13687e-13 0.0025 1 1 2.5 0.005 229 5 1 1.03029e-17 
0.07625 4.49397e-15 -1.13687e-13 0.0025 1 1 2.5 0.005 230 5 1 -1.38556e-17 
0.07875 6.08604e-15 5.68434e-14 0.0025 1 1 2.5 0.005 231 5 1 8.88178e-18 
0.08125 4.91817e-15 5.68434e-14 0.0025 1 1 2.5 0.005 232 5 1 -1.03029e-17 
