# Time [s]: 0.216308
# Columns: pos [m], vel [m/s], acc [m/s^2], mass [kg], dens [kg/m^3], pres [Pa], ene [J/kg], sml [m], id, neighbor, alpha, gradh, ...additional?
1.35663 -0.673161 0.00144454 0.0025 0.511009 0.432677 2.15243 0.00978457 0 4 1 -0.000134227 
1.36141 -0.673168 0.00155973 0.0025 0.536861 0.426137 1.94997 0.0093134 1 4 1 0.000179244 
1.36595 -0.673175 0.0016699 0.0025 0.548186 0.430803 1.96843 0.00912099 2 3 1 -1.90588e-05 
1.37053 -0.673183 0.00177904 0.0025 0.545918 0.429134 1.96457 0.00915889 3 5 1 3.48623e-06 
1.37511 -0.673192 0.00188422 0.0025 0.546312 0.429285 1.9645 0.00915228 4 4 1 -1.38941e-07 
1.37969 -0.673202 0.0019865 0.0025 0.546318 0.42925 1.96426 0.00915217 5 4 1 1.43424e-07 
1.38426 -0.673213 0.00209267 0.0025 0.546337 0.429244 1.96419 0.00915187 6 4 1 -3.84435e-09 
1.38884 -0.673225 0.00221926 0.0025 0.546345 0.429236 1.96412 0.00915172 7 4 1 7.82826e-09 
1.39341 -0.673238 0.00238992 0.0025 0.546354 0.42923 1.96406 0.00915157 8 4 1 4.23499e-09 
1.39799 -0.673252 0.00262355 0.0025 0.546361 0.429223 1.96401 0.00915146 9 4 1 4.78178e-09 
1.40257 -0.673267 0.00292235 0.0025 0.546366 0.429216 1.96396 0.00915138 10 4 1 -3.10462e-09 
1.40714 -0.673284 0.00327301 0.0025 0.54637 0.429207 1.9639 0.00915131 11 4 1 3.71831e-09 
1.41172 -0.673301 0.00365923 0.0025 0.546372 0.429198 1.96385 0.00915127 12 4 1 1.73148e-09 
1.41629 -0.673319 0.00406945 0.0025 0.546373 0.429188 1.96381 0.00915126 13 3 1 2.37158e-09 
1.42087 -0.673339 0.00449503 0.0025 0.546371 0.429177 1.96376 0.0091513 14 4 1 8.55987e-10 
1.42544 -0.673361 0.00493555 0.0025 0.546367 0.429165 1.96372 0.00915135 15 4 1 -2.92299e-09 
1.43002 -0.673385 0.00541855 0.0025 0.546362 0.429151 1.96367 0.00915144 16 4 1 3.40187e-09 
1.4346 -0.67341 0.00600404 0.0025 0.546355 0.429136 1.96363 0.00915155 17 4 1 -3.11935e-10 
1.43917 -0.673439 0.00673938 0.0025 0.546346 0.429119 1.96359 0.00915171 18 4 1 -3.36047e-09 
1.44375 -0.67347 0.00759014 0.0025 0.546335 0.429101 1.96354 0.00915189 19 4 1 2.56176e-10 
1.44832 -0.673503 0.00843733 0.0025 0.546321 0.42908 1.96349 0.00915212 20 4 1 -1.31594e-09 
1.4529 -0.673541 0.00919796 0.0025 0.546305 0.429056 1.96345 0.00915239 21 4 1 -1.23605e-09 
1.45748 -0.673584 0.00997928 0.0025 0.546286 0.429031 1.9634 0.00915271 22 4 1 -1.61807e-09 
1.46205 -0.673632 0.0110646 0.0025 0.546265 0.429002 1.96334 0.00915307 23 4 1 -3.68998e-09 
1.46663 -0.673687 0.0126524 0.0025 0.54624 0.428971 1.96329 0.00915348 24 4 1 -3.22021e-09 
1.47121 -0.673747 0.0145976 0.0025 0.546211 0.428935 1.96323 0.00915397 25 4 1 -4.78984e-09 
1.47578 -0.673813 0.016516 0.0025 0.546177 0.428894 1.96316 0.00915454 26 4 1 -5.99131e-09 
1.48036 -0.673888 0.0182266 0.0025 0.546138 0.428847 1.96309 0.00915519 27 4 1 -4.28544e-09 
1.48494 -0.673975 0.0200515 0.0025 0.546095 0.428796 1.96301 0.00915592 28 4 1 -5.27819e-09 
1.48952 -0.674075 0.0225996 0.0025 0.546045 0.428738 1.96293 0.00915675 29 4 1 -8.72546e-09 
1.4941 -0.674188 0.0261534 0.0025 0.545989 0.428673 1.96283 0.0091577 30 4 1 -9.58663e-09 
1.49867 -0.674313 0.0302131 0.0025 0.545924 0.428599 1.96272 0.00915879 31 4 1 -9.01331e-09 
-0.496746 -0.674452 0.0339543 0.0025 0.545849 0.428514 1.96261 0.00916004 32 4 1 -1.1035e-08 
-0.492166 -0.674609 0.0373307 0.0025 0.545765 0.42842 1.96247 0.00916145 33 4 1 -9.78624e-09 
-0.487585 -0.674787 0.0409248 0.0025 0.545674 0.428317 1.96233 0.00916298 34 4 1 -5.80129e-09 
-0.483003 -0.674982 0.0446096 0.0025 0.545575 0.428206 1.96218 0.00916464 35 4 1 -5.93036e-09 
-0.47842 -0.675188 0.0476542 0.0025 0.545471 0.42809 1.96202 0.00916639 36 4 1 -2.02566e-09 
-0.473836 -0.675398 0.0488922 0.0025 0.545366 0.427973 1.96186 0.00916815 37 4 1 9.17948e-09 
-0.469252 -0.675599 0.0458902 0.0025 0.545267 0.427862 1.96171 0.00916983 38 4 1 2.14867e-08 
-0.464667 -0.675776 0.0385711 0.0025 0.545184 0.42777 1.96158 0.00917121 39 4 1 2.28202e-08 
-0.460081 -0.675904 0.035118 0.0025 0.545122 0.427702 1.96148 0.00917226 40 4 1 7.37584e-08 
-0.455494 -0.675985 -0.0127738 0.0025 0.545119 0.427698 1.96147 0.00917231 41 5 1 9.46449e-08 
-0.450908 -0.675808 -0.0303897 0.0025 0.545194 0.427779 1.96157 0.00917105 42 4 1 9.70056e-08 
-0.446323 -0.675665 -0.0446936 0.0025 0.545355 0.427969 1.96179 0.00916834 43 4 1 4.82866e-07 
-0.44174 -0.674877 -0.349976 0.0025 0.545905 0.428593 1.96257 0.0091591 44 4 1 1.12186e-06 
-0.437164 -0.672234 -0.845509 0.0025 0.547289 0.430117 1.96456 0.00913594 45 4 1 1.34223e-06 
-0.432604 -0.667743 -1.18143 0.0025 0.549563 0.432612 1.96782 0.00909813 46 4 1 1.25736e-06 
-0.428066 -0.662135 -1.41104 0.0025 0.55253 0.435889 1.97205 0.00904928 47 4 1 1.63978e-06 
-0.423555 -0.655214 -1.84536 0.0025 0.556285 0.440056 1.9774 0.00898819 48 4 1 2.42787e-06 
-0.419078 -0.646156 -2.41167 0.0025 0.561119 0.445426 1.98425 0.00891076 49 4 1 3.12072e-06 
-0.414644 -0.634815 -2.98376 0.0025 0.567144 0.452131 1.99274 0.0088161 50 4 1 3.52207e-06 
-0.410261 -0.621501 -3.44414 0.0025 0.574235 0.460052 2.00267 0.00870724 51 4 1 3.52372e-06 
-0.405936 -0.606895 -3.70989 0.0025 0.582076 0.468853 2.01357 0.00858994 52 4 1 3.22839e-06 
-0.401671 -0.59187 -3.80328 0.0025 0.590295 0.478134 2.02489 0.00847034 53 4 1 2.919e-06 
-0.397465 -0.57681 -3.83291 0.0025 0.59863 0.487601 2.03628 0.00835241 54 4 1 2.58987e-06 
-0.393318 -0.562099 -3.76702 0.0025 0.606899 0.497047 2.04748 0.00823861 55 4 1 2.24311e-06 
-0.389226 -0.547935 -3.66144 0.0025 0.614964 0.506316 2.05831 0.00813056 56 4 1 2.02857e-06 
-0.385187 -0.534333 -3.57705 0.0025 0.622795 0.515362 2.06875 0.00802833 57 4 1 1.82458e-06 
-0.381198 -0.521314 -3.45017 0.0025 0.630376 0.524166 2.07878 0.00793177 58 4 1 1.7383e-06 
-0.377255 -0.508823 -3.39812 0.0025 0.637751 0.532775 2.08847 0.00784006 59 4 1 1.81468e-06 
-0.373357 -0.496558 -3.40161 0.0025 0.645044 0.541329 2.09798 0.00775141 60 4 1 1.95939e-06 
-0.369503 -0.484347 -3.47745 0.0025 0.652386 0.549981 2.1075 0.00766418 61 4 1 2.17676e-06 
-0.365693 -0.471919 -3.62111 0.0025 0.65991 0.558885 2.11718 0.00757679 62 4 1 2.35032e-06 
-0.361926 -0.459142 -3.77029 0.0025 0.66769 0.568131 2.12713 0.00748851 63 4 1 2.46854e-06 
-0.358204 -0.44603 -3.93029 0.0025 0.675741 0.577742 2.13735 0.00739929 64 4 1 2.50502e-06 
-0.354527 -0.432647 -4.04392 0.0025 0.684028 0.587682 2.14779 0.00730964 65 4 1 2.45873e-06 
-0.350894 -0.419144 -4.12119 0.0025 0.692477 0.597866 2.15836 0.00722045 66 4 1 2.42327e-06 
-0.347306 -0.405613 -4.1927 0.0025 0.701041 0.608241 2.169 0.00713225 67 4 1 2.38245e-06 
-0.343762 -0.392043 -4.24451 0.0025 0.709686 0.618762 2.17966 0.00704537 68 4 1 2.25919e-06 
-0.34026 -0.378653 -4.2337 0.0025 0.718341 0.62935 2.19025 0.00696048 69 4 1 2.20397e-06 
-0.336801 -0.365373 -4.27232 0.0025 0.726989 0.639982 2.20075 0.00687768 70 4 1 2.1628e-06 
-0.333382 -0.35224 -4.27401 0.0025 0.735635 0.650661 2.21118 0.00679685 71 4 1 2.09754e-06 
-0.330004 -0.339248 -4.29127 0.0025 0.744262 0.661368 2.22151 0.00671806 72 4 1 2.06384e-06 
-0.326664 -0.326398 -4.30633 0.0025 0.752877 0.672108 2.23176 0.00664119 73 4 1 1.98259e-06 
-0.323362 -0.313751 -4.292 0.0025 0.761459 0.682856 2.2419 0.00656635 74 4 1 1.93827e-06 
-0.320098 -0.301269 -4.30876 0.0025 0.770006 0.693611 2.25193 0.00649345 75 4 1 1.90712e-06 
-0.316869 -0.288889 -4.31156 0.0025 0.778534 0.704387 2.26187 0.00642233 76 4 1 1.86148e-06 
-0.313675 -0.276636 -4.32367 0.0025 0.787038 0.715182 2.27172 0.00635294 77 4 1 1.83197e-06 
-0.310516 -0.264533 -4.33695 0.0025 0.795525 0.726 2.28148 0.00628516 78 4 1 1.74719e-06 
-0.30739 -0.252584 -4.30716 0.0025 0.803967 0.736808 2.29113 0.00621916 79 4 1 1.7223e-06 
-0.304296 -0.240786 -4.33533 0.0025 0.812375 0.747619 2.30069 0.00615479 80 4 1 1.70779e-06 
-0.301235 -0.229118 -4.33424 0.0025 0.820771 0.758456 2.31016 0.00609184 81 4 1 1.66874e-06 
-0.298204 -0.217562 -4.35244 0.0025 0.829147 0.769314 2.31956 0.00603029 82 4 1 1.64332e-06 
-0.295204 -0.20607 -4.36245 0.0025 0.837511 0.780199 2.32889 0.00597007 83 4 1 1.57261e-06 
-0.292234 -0.1948 -4.34169 0.0025 0.845836 0.791075 2.33812 0.00591131 84 4 1 1.51812e-06 
-0.289293 -0.183617 -4.33418 0.0025 0.854109 0.801929 2.34724 0.00585406 85 4 1 1.51452e-06 
-0.28638 -0.172623 -4.34942 0.0025 0.862356 0.81279 2.35628 0.00579807 86 4 1 1.492e-06 
-0.283495 -0.161691 -4.35187 0.0025 0.870588 0.823673 2.36525 0.00574325 87 4 1 1.51003e-06 
-0.280636 -0.150836 -4.41047 0.0025 0.878832 0.83461 2.37418 0.00568937 88 4 1 1.40442e-06 
-0.277805 -0.14009 -4.3344 0.0025 0.887034 0.845534 2.38302 0.00563676 89 4 1 1.38122e-06 
-0.275 -0.129533 -4.39188 0.0025 0.895189 0.856436 2.39176 0.00558541 90 4 1 1.2986e-06 
-0.27222 -0.119057 -4.28195 0.0025 0.903277 0.867287 2.40037 0.0055354 91 4 1 1.2868e-06 
-0.269464 -0.10891 -4.35009 0.0025 0.911305 0.878103 2.40888 0.00548663 92 4 1 1.3772e-06 
-0.266733 -0.0985223 -4.3817 0.0025 0.919375 0.889001 2.41739 0.00543848 93 4 1 1.2046e-06 
-0.264025 -0.0885587 -4.28112 0.0025 0.927377 0.899861 2.42578 0.00539155 94 4 1 1.44161e-06 
-0.261341 -0.0783557 -4.59553 0.0025 0.93547 0.910867 2.43424 0.00534491 95 4 1 1.08401e-06 
-0.25868 -0.0682371 -4.14771 0.0025 0.943435 0.92172 2.44251 0.00529978 96 4 1 5.89448e-07 
-0.256041 -0.0593492 -3.89095 0.0025 0.95093 0.932021 2.45022 0.00525801 97 4 1 1.58721e-06 
-0.253422 -0.049762 -4.73421 0.0025 0.958744 0.942773 2.45827 0.00521516 98 4 1 1.57601e-06 
-0.250826 -0.03933 -4.52751 0.0025 0.966885 0.953943 2.46663 0.00517124 99 4 1 -1.41552e-08 
-0.248251 -0.030671 -3.34635 0.0025 0.974127 0.963955 2.47397 0.0051328 100 4 1 2.81317e-07 
-0.245693 -0.0233183 -3.60062 0.0025 0.980806 0.973305 2.48069 0.00509785 101 4 1 2.65414e-06 
-0.243153 -0.0136569 -5.57597 0.0025 0.988821 0.984477 2.48884 0.00505653 102 4 1 2.3641e-06 
-0.240637 -0.00162697 -5.37419 0.0025 0.997734 0.996754 2.4979 0.00501136 103 4 1 -2.62786e-06 
-0.238142 0.00550451 -1.02322 0.0025 1.0036 1.0049 2.50368 0.00498205 104 4 1 -2.80875e-06 
-0.235654 0.00639355 -0.573333 0.0025 1.00638 1.00906 2.50627 0.00496832 105 4 1 4.0182e-06 
-0.233173 0.013159 -6.10112 0.0025 1.01224 1.01737 2.51221 0.00493955 106 4 1 4.39485e-06 
-0.230715 0.026599 -5.90827 0.0025 1.02132 1.02987 2.52138 0.00489561 107 4 1 -3.57675e-06 
-0.228278 0.0326953 -0.636477 0.0025 1.02657 1.03719 2.5265 0.0048706 108 4 1 -4.38568e-06 
-0.225844 0.0321006 0.819115 0.0025 1.02668 1.03749 2.52653 0.00487007 109 3 1 -1.31681e-06 
-0.223408 0.0299945 1.15729 0.0025 1.02498 1.03514 2.52484 0.00487815 110 4 1 -2.94706e-07 
-0.220966 0.0274923 1.25345 0.0025 1.02283 1.03211 2.52271 0.0048884 111 4 1 -6.6759e-08 
-0.218519 0.0248075 1.32545 0.0025 1.02049 1.02882 2.5204 0.00489958 112 4 1 -2.12094e-08 
-0.216066 0.0219537 1.40501 0.0025 1.01802 1.02533 2.51796 0.00491148 113 4 1 2.06298e-08 
-0.213608 0.0189516 1.46972 0.0025 1.01545 1.02171 2.5154 0.00492392 114 4 1 9.64847e-08 
-0.211143 0.0158819 1.48622 0.0025 1.01286 1.01806 2.51283 0.00493651 115 4 1 1.93551e-07 
-0.208671 0.0128754 1.43369 0.0025 1.01036 1.01455 2.51034 0.00494873 116 4 1 2.83901e-07 
-0.206194 0.0100772 1.31126 0.0025 1.00806 1.01132 2.50805 0.00496 117 4 1 3.43718e-07 
-0.203711 0.0076084 1.13588 0.0025 1.00606 1.00851 2.50605 0.00496989 118 4 1 3.63037e-07 
-0.201224 0.00554195 0.93362 0.0025 1.0044 1.00618 2.50439 0.00497811 119 4 1 3.45578e-07 
-0.198733 0.00389681 0.730399 0.0025 1.00308 1.00433 2.50307 0.00498464 120 4 1 3.03009e-07 
-0.196239 0.00264704 0.545777 0.0025 1.00209 1.00294 2.50208 0.00498958 121 4 1 2.48529e-07 
-0.193743 0.00173817 0.390775 0.0025 1.00137 1.00193 2.50136 0.00499317 122 4 1 1.92785e-07 
-0.191246 0.00110369 0.268792 0.0025 1.00087 1.00122 2.50086 0.00499566 123 4 1 1.42504e-07 
-0.188748 0.000677604 0.177937 0.0025 1.00053 1.00075 2.50053 0.00499734 124 4 1 1.00878e-07 
-0.186249 0.000401999 0.113476 0.0025 1.00032 1.00045 2.50031 0.00499842 125 4 1 6.85923e-08 
-0.183749 0.000230195 0.0697299 0.0025 1.00018 1.00026 2.50018 0.0049991 126 4 1 4.48666e-08 
-0.18125 0.000127004 0.0412626 0.0025 1.0001 1.00014 2.5001 0.0049995 127 4 1 2.82434e-08 
-0.17875 6.73435e-05 0.0234818 0.0025 1.00005 1.00007 2.50005 0.00499974 128 4 1 1.71022e-08 
-0.17625 3.42003e-05 0.0128229 0.0025 1.00003 1.00004 2.50003 0.00499987 129 4 1 9.94889e-09 
-0.17375 1.65558e-05 0.00669759 0.0025 1.00001 1.00002 2.50001 0.00499993 130 4 1 5.54863e-09 
-0.17125 7.58849e-06 0.00333061 0.0025 1.00001 1.00001 2.50001 0.00499997 131 4 1 2.95775e-09 
-0.16875 3.26159e-06 0.00156646 0.0025 1 1 2.5 0.00499999 132 4 1 1.50044e-09 
-0.16625 1.29502e-06 0.000689952 0.0025 1 1 2.5 0.00499999 133 4 1 7.19853e-10 
-0.16375 4.63257e-07 0.00028015 0.0025 1 1 2.5 0.005 134 4 1 3.23609e-10 
-0.16125 1.42329e-07 0.00010199 0.0025 1 1 2.5 0.005 135 4 1 1.34333e-10 
-0.15875 3.3473e-08 3.15298e-05 0.0025 1 1 2.5 0.005 136 4 1 5.00326e-11 
-0.15625 3.63232e-09 7.04078e-06 0.0025 1 1 2.5 0.005 137 4 1 1.64058e-11 
-0.15375 -9.78374e-10 -5.62858e-07 0.0025 1 1 2.5 0.005 138 5 1 3.80689e-12 
-0.15125 9.47102e-10 -7.75184e-07 0.0025 1 1 2.5 0.005 139 4 1 -4.71331e-13 
-0.14875 1.26867e-09 8.03425e-08 0.0025 1 1 2.5 0.005 140 3 1 -4.36122e-13 
-0.14625 8.94874e-10 2.26315e-07 0.0025 1 1 2.5 0.005 141 4 1 -1.09779e-14 
-0.14375 4.94532e-10 1.81412e-07 0.0025 1 1 2.5 0.005 142 4 1 8.52694e-14 
-0.14125 2.30006e-10 1.06744e-07 0.0025 1 1 2.5 0.005 143 4 1 7.79117e-14 
-0.13875 9.08352e-11 5.14834e-08 0.0025 1 1 2.5 0.005 144 4 1 4.81158e-14 
-0.13625 2.95043e-11 2.08105e-08 0.0025 1 1 2.5 0.005 145 4 1 2.40284e-14 
-0.13375 7.03435e-12 6.79518e-09 0.0025 1 1 2.5 0.005 146 4 1 9.93694e-15 
-0.13125 6.62003e-13 1.54654e-09 0.0025 1 1 2.5 0.005 147 4 1 3.46709e-15 
-0.12875 -2.69071e-13 -1.7252e-10 0.0025 1 1 2.5 0.005 148 5 1 7.56728e-16 
-0.12625 1.58199e-13 -1.41426e-10 0.0025 1 1 2.5 0.005 149 4 1 -1.15818e-16 
-0.12375 2.03109e-13 1.19371e-11 0.0025 1 1 2.5 0.005 150 3 1 -8.10019e-17 
-0.12125 1.29641e-13 4.58158e-11 0.0025 1 1 2.5 0.005 151 4 1 3.55271e-19 
-0.11875 5.98609e-14 3.3765e-11 0.0025 1 1 2.5 0.005 152 4 1 2.06057e-17 
-0.11625 1.95006e-14 1.21645e-11 0.0025 1 1 2.5 0.005 153 4 1 1.45661e-17 
-0.11375 1.95077e-15 6.48015e-12 0.0025 1 1 2.5 0.005 154 4 1 6.03961e-18 
-0.11125 -4.52713e-16 -5.68434e-13 0.0025 1 1 2.5 0.005 155 5 1 1.06581e-18 
-0.10875 -8.70753e-17 -1.7053e-13 0.0025 1 1 2.5 0.005 156 5 1 -1.42109e-18 
-0.10625 -6.9602e-17 -6.72623e-44 0.0025 1 1 2.5 0.005 157 5 1 -1.42109e-18 
-0.10375 -2.08964e-16 -3.36312e-44 0.0025 1 1 2.5 0.005 158 5 1 -1.42109e-18 
-0.10125 -3.83096e-16 -1.13687e-13 0.0025 1 1 2.5 0.005 159 5 1 -1.42109e-18 
-0.09875 -5.22697e-16 1.13687e-13 0.0025 1 1 2.5 0.005 160 5 1 -1.42109e-18 
-0.09625 -6.62062e-16 -1.13687e-13 0.0025 1 1 2.5 0.005 161 5 1 -1.42109e-18 
-0.09375 -8.01372e-16 1.13687e-13 0.0025 1 1 2.5 0.005 162 5 1 -1.42109e-18 
-0.09125 -9.40536e-16 -1.13687e-13 0.0025 1 1 2.5 0.005 163 5 1 -1.42109e-18 
-0.08875 -1.07971e-15 1.13687e-13 0.0025 1 1 2.5 0.005 164 5 1 -1.42109e-18 
-0.08625 -1.28807e-15 -1.13687e-13 0.0025 1 1 2.5 0.005 165 5 1 -1.77636e-18 
-0.08375 -1.75733e-15 5.68434e-14 0.0025 1 1 2.5 0.005 166 5 1 -7.10543e-19 
-0.08125 8.09324e-16 -1.13687e-13 0.0025 1 1 2.5 0.005 167 5 1 -3.55271e-18 
-0.07875 -1.93873e-15 -1.13687e-13 0.0025 1 1 2.5 0.005 168 5 1 5.68434e-18 
-0.07625 -1.90577e-15 -1.00893e-43 0.0025 1 1 2.5 0.005 169 5 1 -1.38556e-17 
-0.07375 -3.63565e-15 -1.13687e-13 0.0025 1 1 2.5 0.005 170 5 1 1.24345e-17 
-0.07125 7.05123e-16 -1.13687e-13 0.0025 1 1 2.5 0.005 171 5 1 -1.81188e-17 
-0.06875 9.62075e-17 4.54747e-13 0.0025 1 1 2.5 0.005 172 5 1 1.24345e-17 
-0.06625 -9.09351e-16 5.11591e-13 0.0025 1 1 2.5 0.005 173 5 1 -1.52767e-17 
-0.06375 3.04132e-15 -3.97904e-13 0.0025 1 1 2.5 0.005 174 4 1 -3.55271e-19 
-0.06125 6.22224e-16 -2.84217e-13 0.0025 1 1 2.5 0.005 175 3 1 2.8777e-17 
-0.05875 -5.51268e-16 1.13687e-13 0.0025 1 1 2.5 0.005 176 4 1 -2.30926e-17 
-0.05625 -3.3613e-15 2.84217e-13 0.0025 1 1 2.5 0.005 177 5 1 2.4869e-18 
-0.05375 1.36029e-15 -1.7053e-13 0.0025 1 1 2.5 0.005 178 4 1 3.55271e-19 
-0.05125 -2.66633e-16 1.38051e-27 0.0025 1 1 2.5 0.005 179 5 1 -1.42109e-18 
-0.04875 2.07993e-15 5.68434e-14 0.0025 1 1 2.5 0.005 180 5 1 -3.90799e-18 
-0.04625 1.70331e-15 1.13687e-13 0.0025 1 1 2.5 0.005 181 5 1 -7.10543e-19 
-0.04375 1.76399e-18 5.68434e-14 0.0025 1 1 2.5 0.005 182 5 1 -3.55271e-19 
-0.04125 -5.86461e-17 1.13687e-13 0.0025 1 1 2.5 0.005 183 5 1 -6.39488e-18 
-0.03875 -2.22967e-15 1.13687e-13 0.0025 1 1 2.5 0.005 184 5 1 6.39488e-18 
-0.03625 -6.68302e-16 2.27374e-13 0.0025 1 1 2.5 0.005 185 5 1 -1.3145e-17 
-0.03375 -2.49587e-15 -1.02318e-12 0.0025 1 1 2.5 0.005 186 4 1 -9.59233e-18 
-0.03125 -2.46537e-15 1.59162e-12 0.0025 1 1 2.5 0.005 187 3 1 4.583e-17 
-0.02875 -2.24599e-15 -9.66338e-13 0.0025 1 1 2.5 0.005 188 4 1 -3.41061e-17 
-0.02625 -2.74938e-15 -3.54987e-28 0.0025 1 1 2.5 0.005 189 5 1 9.23706e-18 
-0.02375 -1.69783e-15 -1.7053e-13 0.0025 1 1 2.5 0.005 190 3 1 -2.13163e-18 
-0.02125 -1.83227e-15 1.13687e-13 0.0025 1 1 2.5 0.005 191 4 1 3.55271e-18 
-0.01875 -2.06952e-15 -7.38964e-13 0.0025 1 1 2.5 0.005 192 4 1 -6.75016e-18 
-0.01625 -2.68517e-15 1.3074e-12 0.0025 1 1 2.5 0.005 193 5 1 3.55271e-19 
-0.01375 7.49009e-16 -1.02318e-12 0.0025 1 1 2.5 0.005 194 3 1 2.4869e-18 
-0.01125 2.60546e-16 4.54747e-13 0.0025 1 1 2.5 0.005 195 4 1 -1.77636e-18 
-0.00875 -9.65645e-17 1.13687e-13 0.0025 1 1 2.5 0.005 196 4 1 3.55271e-19 
-0.00625 -7.77576e-16 4.54747e-13 0.0025 1 1 2.5 0.005 197 4 1 3.55271e-19 
-0.00375 -4.47091e-16 -5.68434e-13 0.0025 1 1 2.5 0.005 198 4 1 7.10543e-19 
-0.00125 1.37458e-16 3.41061e-13 0.0025 1 1 2.5 0.005 199 3 1 3.55271e-19 
0.00125 -7.73992e-17 1.13687e-13 0.0025 1 1 2.5 0.005 200 4 1 3.55271e-19 
0.00375 -2.2791e-16 -1.7053e-13 0.0025 1 1 2.5 0.005 201 5 1 -1.06581e-18 
0.00625 -6.98279e-16 -2.27374e-13 0.0025 1 1 2.5 0.005 202 4 1 7.10543e-19 
0.00875 -9.17618e-16 4.54747e-13 0.0025 1 1 2.5 0.005 203 3 1 0 
0.01125 -1.16892e-15 -7.95808e-13 0.0025 1 1 2.5 0.005 204 4 1 2.13163e-18 
0.01375 -1.30682e-15 7.95808e-13 0.0025 1 1 2.5 0.005 205 5 1 -3.90799e-18 
0.01625 -1.81075e-15 -6.82121e-13 0.0025 1 1 2.5 0.005 206 4 1 2.4869e-18 
0.01875 3.14946e-16 -1.68619e-27 0.0025 1 1 2.5 0.005 207 4 1 -5.32907e-18 
0.02125 -7.77534e-16 -1.13687e-13 0.0025 1 1 2.5 0.005 208 3 1 7.4607e-18 
0.02375 2.22919e-15 3.97904e-13 0.0025 1 1 2.5 0.005 209 4 1 -7.10543e-19 
0.02625 8.73719e-16 -1.13687e-13 0.0025 1 1 2.5 0.005 210 5 1 -4.9738e-18 
0.02875 2.31134e-15 1.42109e-12 0.0025 1 1 2.5 0.005 211 4 1 -1.42109e-18 
0.03125 4.95735e-15 -3.29692e-12 0.0025 1 1 2.5 0.005 212 3 1 3.55271e-19 
0.03375 4.88329e-15 2.6148e-12 0.0025 1 1 2.5 0.005 213 3 1 1.20792e-17 
0.03625 2.42987e-15 -2.27374e-13 0.0025 1 1 2.5 0.005 214 5 1 -1.84741e-17 
0.03875 9.65135e-16 5.68434e-14 0.0025 1 1 2.5 0.005 215 4 1 1.81188e-17 
0.04125 1.59197e-15 5.68434e-14 0.0025 1 1 2.5 0.005 216 4 1 -1.52767e-17 
0.04375 8.09894e-16 3.41061e-13 0.0025 1 1 2.5 0.005 217 4 1 -2.4869e-18 
0.04625 3.19062e-15 1.13687e-13 0.0025 1 1 2.5 0.005 218 3 1 9.9476e-18 
0.04875 5.39804e-15 -5.68434e-14 0.0025 1 1 2.5 0.005 219 4 1 -5.68434e-18 
0.05125 4.5267e-16 -6.25278e-13 0.0025 1 1 2.5 0.005 220 4 1 1.77636e-18 
0.05375 6.9012e-16 -2.27374e-13 0.0025 1 1 2.5 0.005 221 3 1 -3.55271e-19 
0.05625 4.53028e-15 2.27374e-13 0.0025 1 1 2.5 0.005 222 5 1 1.77636e-17 
0.05875 3.74145e-15 3.41061e-13 0.0025 1 1 2.5 0.005 223 5 1 -6.99885e-17 
0.06125 2.30276e-15 3.97904e-13 0.0025 1 1 2.5 0.005 224 4 1 6.57252e-17 
0.06375 6.05795e-15 -4.54747e-13 0.0025 1 1 2.5 0.005 225 4 1 2.4869e-18 
0.06625 2.91914e-15 -2.27374e-13 0.0025 1 1 2.5 0.005 226 5 1 -2.94875e-17 
0.06875 6.0637e-15 -5.68434e-14 0.0025 1 1 2.5 0.005 227 5 1 1.88294e-17 
0.07125 2.40362e-15 -1.13687e-13 0.0025 1 1 2.5 0.005 228 5 1 -1.49214e-17 
0.07375 4.51128e-15 -5.68434e-14 0.0025 1 1 2.5 0.005 229 5 1 8.88178e-18 
0.07625 4.38955e-15 6.72623e-44 0.0025 1 1 2.5 0.005 230 5 1 -1.35003e-17 
0.07875 6.29496e-15 5.68434e-14 0.0025 1 1 2.5 0.005 231 5 1 8.88178e-18 
