# Time [s]: 0.226723
# Columns: pos [m], vel [m/s], acc [m/s^2], mass [kg], dens [kg/m^3], pres [Pa], ene [J/kg], sml [m], id, neighbor, alpha, gradh, ...additional?
1.34962 -0.673147 0.00118582 0.0025 0.511016 0.432685 2.15244 0.00978443 0 4 1 -0.000134226 
1.3544 -0.673153 0.00125056 0.0025 0.536869 0.426146 1.94998 0.00931326 1 4 1 0.000179246 
1.35894 -0.67316 0.00130526 0.0025 0.548195 0.430813 1.96844 0.00912084 2 3 1 -1.90586e-05 
1.36352 -0.673167 0.00135724 0.0025 0.545928 0.429145 1.96458 0.00915872 3 5 1 3.48617e-06 
1.3681 -0.673175 0.00141653 0.0025 0.546323 0.429297 1.96451 0.0091521 4 4 1 -1.38831e-07 
1.37268 -0.673184 0.00149948 0.0025 0.54633 0.429264 1.96428 0.00915197 5 4 1 1.43475e-07 
1.37725 -0.673194 0.00162226 0.0025 0.54635 0.429259 1.96421 0.00915164 6 4 1 -3.87471e-09 
1.38183 -0.673204 0.00179304 0.0025 0.54636 0.429252 1.96414 0.00915148 7 4 1 7.74209e-09 
1.3864 -0.673215 0.00200808 0.0025 0.54637 0.429247 1.96408 0.00915131 8 4 1 4.15579e-09 
1.39098 -0.673227 0.00225501 0.0025 0.546377 0.429241 1.96403 0.00915118 9 4 1 4.77954e-09 
1.39555 -0.673239 0.0025196 0.0025 0.546384 0.429235 1.96398 0.00915108 10 4 1 -2.99111e-09 
1.40013 -0.673252 0.0027907 0.0025 0.546389 0.429228 1.96393 0.00915099 11 4 1 3.94611e-09 
1.40471 -0.673266 0.00306498 0.0025 0.546392 0.42922 1.96388 0.00915093 12 4 1 2.0402e-09 
1.40928 -0.673281 0.0033545 0.0025 0.546394 0.429212 1.96384 0.00915091 13 3 1 2.69758e-09 
1.41386 -0.673297 0.00368869 0.0025 0.546394 0.429203 1.9638 0.00915091 14 4 1 1.11485e-09 
1.41843 -0.673314 0.00409583 0.0025 0.546392 0.429193 1.96376 0.00915093 15 4 1 -2.76803e-09 
1.42301 -0.673333 0.00456828 0.0025 0.54639 0.429181 1.96371 0.00915098 16 4 1 3.56636e-09 
1.42758 -0.673353 0.00504914 0.0025 0.546385 0.429169 1.96367 0.00915106 17 4 1 1.17543e-10 
1.43216 -0.673375 0.00547791 0.0025 0.546379 0.429155 1.96363 0.00915117 18 4 1 -2.48766e-09 
1.43673 -0.673399 0.00587304 0.0025 0.546371 0.42914 1.96359 0.00915129 19 4 1 1.39194e-09 
1.44131 -0.673427 0.00636097 0.0025 0.546362 0.429124 1.96355 0.00915145 20 4 1 -4.37307e-10 
1.44589 -0.673458 0.00708235 0.0025 0.54635 0.429106 1.96351 0.00915164 21 4 1 -9.84245e-10 
1.45046 -0.673491 0.00804019 0.0025 0.546337 0.429086 1.96347 0.00915187 22 4 1 -1.65794e-09 
1.45504 -0.673528 0.00906543 0.0025 0.54632 0.429064 1.96342 0.00915214 23 4 1 -3.08458e-09 
1.45961 -0.673568 0.00998728 0.0025 0.546302 0.429038 1.96338 0.00915245 24 4 1 -1.35007e-09 
1.46419 -0.673614 0.0108571 0.0025 0.54628 0.429011 1.96333 0.00915282 25 4 1 -2.192e-09 
1.46877 -0.673667 0.011964 0.0025 0.546256 0.42898 1.96328 0.00915322 26 4 1 -4.00647e-09 
1.47334 -0.673726 0.0135727 0.0025 0.546228 0.428946 1.96322 0.00915369 27 4 1 -3.63201e-09 
1.47792 -0.673792 0.0156297 0.0025 0.546196 0.428907 1.96316 0.00915423 28 4 1 -5.04422e-09 
1.4825 -0.673865 0.0178018 0.0025 0.546158 0.428863 1.96309 0.00915485 29 4 1 -7.10875e-09 
1.48707 -0.673947 0.0198885 0.0025 0.546115 0.428813 1.96301 0.00915557 30 4 1 -5.97038e-09 
1.49165 -0.674041 0.0221134 0.0025 0.546067 0.428756 1.96293 0.00915639 31 4 1 -5.09448e-09 
1.49623 -0.674149 0.0248624 0.0025 0.546012 0.428693 1.96284 0.00915731 32 4 1 -9.16617e-09 
-0.49919 -0.674271 0.0282586 0.0025 0.54595 0.428622 1.96274 0.00915835 33 4 1 -1.04996e-08 
-0.494611 -0.674408 0.032116 0.0025 0.545879 0.428542 1.96263 0.00915954 34 4 1 -8.29846e-09 
-0.490031 -0.67456 0.0361036 0.0025 0.5458 0.428453 1.9625 0.00916087 35 4 1 -1.02909e-08 
-0.48545 -0.674728 0.0399495 0.0025 0.545711 0.428353 1.96237 0.00916236 36 4 1 -9.45919e-09 
-0.480868 -0.674912 0.0433973 0.0025 0.545615 0.428246 1.96222 0.00916397 37 4 1 -4.096e-09 
-0.476286 -0.675108 0.0457207 0.0025 0.545514 0.428133 1.96206 0.00916567 38 4 1 -1.56901e-10 
-0.471703 -0.675311 0.0462599 0.0025 0.545412 0.42802 1.96191 0.00916738 39 4 1 6.29369e-09 
-0.467119 -0.675511 0.0444689 0.0025 0.545316 0.427912 1.96176 0.009169 40 4 1 1.82646e-08 
-0.462534 -0.675691 0.0382543 0.0025 0.545233 0.42782 1.96164 0.00917039 41 4 1 2.5116e-08 
-0.457948 -0.675828 0.0300563 0.0025 0.545171 0.427751 1.96154 0.00917144 42 4 1 3.68339e-08 
-0.453362 -0.67593 0.0221845 0.0025 0.54514 0.427718 1.96149 0.00917195 43 5 1 1.01176e-07 
-0.448776 -0.675826 -0.0485906 0.0025 0.545192 0.427774 1.96156 0.00917108 44 4 1 1.02473e-07 
-0.444191 -0.675604 -0.0368147 0.0025 0.54533 0.42793 1.96175 0.00916876 45 4 1 2.53209e-07 
-0.439608 -0.675203 -0.184076 0.0025 0.545679 0.428332 1.96224 0.0091629 46 4 1 8.2187e-07 
-0.435028 -0.673478 -0.619475 0.0025 0.546661 0.429426 1.96364 0.00914643 47 4 1 1.31153e-06 
-0.430461 -0.669724 -1.0694 0.0025 0.548565 0.431513 1.96637 0.0091147 48 4 1 1.29373e-06 
-0.425914 -0.664535 -1.30902 0.0025 0.551247 0.434464 1.97021 0.00907034 49 4 1 1.34183e-06 
-0.421391 -0.658284 -1.60747 0.0025 0.554595 0.438172 1.97498 0.00901558 50 4 1 1.89245e-06 
-0.416898 -0.650442 -2.07201 0.0025 0.558802 0.442843 1.98096 0.00894771 51 4 1 2.58459e-06 
-0.412443 -0.640545 -2.60438 0.0025 0.564067 0.448696 1.9884 0.0088642 52 4 1 3.09766e-06 
-0.408033 -0.628691 -3.09212 0.0025 0.570393 0.455749 1.99729 0.00876589 53 4 1 3.2997e-06 
-0.403677 -0.615219 -3.44466 0.0025 0.577585 0.463799 2.00733 0.00865674 54 4 1 3.15644e-06 
-0.399376 -0.600956 -3.61109 0.0025 0.585316 0.472499 2.01803 0.00854239 55 4 1 2.86068e-06 
-0.395134 -0.586468 -3.66741 0.0025 0.59328 0.481513 2.02897 0.00842773 56 4 1 2.59264e-06 
-0.390948 -0.572088 -3.66749 0.0025 0.601281 0.49062 2.03986 0.00831558 57 4 1 2.27911e-06 
-0.386818 -0.558098 -3.58248 0.0025 0.60917 0.499649 2.05052 0.00820789 58 4 1 2.02902e-06 
-0.38274 -0.544651 -3.50853 0.0025 0.616863 0.508503 2.06084 0.00810552 59 4 1 1.8461e-06 
-0.378712 -0.531672 -3.41235 0.0025 0.624344 0.517154 2.07079 0.00800841 60 4 1 1.67476e-06 
-0.374731 -0.51925 -3.31628 0.0025 0.631599 0.525588 2.08038 0.00791642 61 4 1 1.6304e-06 
-0.370795 -0.507254 -3.27397 0.0025 0.638685 0.533865 2.08968 0.00782858 62 4 1 1.67977e-06 
-0.366902 -0.495475 -3.27283 0.0025 0.645699 0.542095 2.09882 0.00774354 63 4 1 1.8089e-06 
-0.363051 -0.483742 -3.34468 0.0025 0.652756 0.550413 2.10797 0.00765983 64 4 1 1.9915e-06 
-0.359242 -0.47181 -3.46524 0.0025 0.659973 0.558953 2.11725 0.00757607 65 4 1 2.14756e-06 
-0.355475 -0.459601 -3.60592 0.0025 0.667416 0.567799 2.12677 0.00749158 66 4 1 2.24528e-06 
-0.35175 -0.447078 -3.73926 0.0025 0.675101 0.576972 2.13653 0.0074063 67 4 1 2.30057e-06 
-0.348069 -0.434296 -3.86532 0.0025 0.683009 0.586452 2.1465 0.00732055 68 4 1 2.2485e-06 
-0.34443 -0.421389 -3.91697 0.0025 0.691069 0.596161 2.1566 0.00723517 69 4 1 2.22446e-06 
-0.340833 -0.408491 -4.00475 0.0025 0.699238 0.606048 2.16676 0.00715064 70 4 1 2.19758e-06 
-0.337279 -0.395546 -4.04355 0.0025 0.707493 0.616084 2.17695 0.00706721 71 4 1 2.08333e-06 
-0.333766 -0.382705 -4.04754 0.0025 0.715762 0.626186 2.18709 0.00698556 72 4 1 2.02e-06 
-0.330293 -0.369989 -4.06418 0.0025 0.724022 0.636324 2.19715 0.00690587 73 4 1 1.98383e-06 
-0.32686 -0.357396 -4.07815 0.0025 0.732275 0.6465 2.20713 0.00682804 74 4 1 1.93177e-06 
-0.323465 -0.344965 -4.08446 0.0025 0.740512 0.656703 2.21702 0.00675209 75 4 1 1.89524e-06 
-0.320107 -0.33262 -4.10233 0.0025 0.748735 0.666934 2.22683 0.00667793 76 4 1 1.84878e-06 
-0.316787 -0.320441 -4.10447 0.0025 0.75694 0.677187 2.23656 0.00660554 77 4 1 1.77446e-06 
-0.313502 -0.308437 -4.09039 0.0025 0.765105 0.687434 2.24618 0.00653505 78 4 1 1.7528e-06 
-0.310251 -0.296535 -4.11246 0.0025 0.773244 0.697693 2.2557 0.00646627 79 4 1 1.73044e-06 
-0.307035 -0.284793 -4.11602 0.0025 0.78137 0.707978 2.26515 0.00639902 80 4 1 1.69377e-06 
-0.303852 -0.273139 -4.13212 0.0025 0.78948 0.718286 2.27452 0.00633328 81 4 1 1.64983e-06 
-0.300702 -0.261602 -4.12896 0.0025 0.797569 0.728609 2.28382 0.00626905 82 4 1 1.60077e-06 
-0.297583 -0.250261 -4.12949 0.0025 0.805625 0.738932 2.29301 0.00620636 83 4 1 1.56441e-06 
-0.294495 -0.238985 -4.12803 0.0025 0.813651 0.749258 2.30212 0.00614514 84 4 1 1.53991e-06 
-0.291438 -0.227903 -4.13703 0.0025 0.821653 0.759594 2.31115 0.0060853 85 4 1 1.52457e-06 
-0.28841 -0.216848 -4.15193 0.0025 0.829644 0.769956 2.32011 0.00602668 86 4 1 1.50631e-06 
-0.285411 -0.205934 -4.17005 0.0025 0.837629 0.780348 2.32902 0.00596923 87 4 1 1.43051e-06 
-0.28244 -0.195113 -4.1373 0.0025 0.845576 0.790732 2.33783 0.00591313 88 4 1 1.40918e-06 
-0.279498 -0.184476 -4.16378 0.0025 0.853488 0.801109 2.34655 0.00585831 89 4 1 1.36931e-06 
-0.276582 -0.173898 -4.12841 0.0025 0.861366 0.811479 2.35519 0.00580473 90 4 1 1.34616e-06 
-0.273693 -0.163553 -4.15571 0.0025 0.869212 0.821849 2.36375 0.00575234 91 4 1 1.40344e-06 
-0.270829 -0.153083 -4.21076 0.0025 0.877087 0.832288 2.37229 0.00570069 92 4 1 1.26372e-06 
-0.267992 -0.142889 -4.11409 0.0025 0.884911 0.842702 2.38073 0.00565029 93 4 1 1.32859e-06 
-0.265179 -0.132701 -4.25494 0.0025 0.892732 0.853146 2.38912 0.00560079 94 4 1 1.20961e-06 
-0.262391 -0.122602 -4.08105 0.0025 0.900502 0.863553 2.39742 0.00555246 95 4 1 1.09254e-06 
-0.259626 -0.112935 -4.1049 0.0025 0.908145 0.873843 2.40553 0.00550573 96 4 1 1.36125e-06 
-0.256885 -0.10298 -4.2818 0.0025 0.915885 0.884279 2.41372 0.0054592 97 4 1 1.06545e-06 
-0.254167 -0.093271 -3.99507 0.0025 0.923539 0.894638 2.42176 0.00541396 98 4 1 1.08655e-06 
-0.251471 -0.0839516 -4.19019 0.0025 0.931114 0.904946 2.42968 0.00536991 99 4 1 1.49031e-06 
-0.248797 -0.073972 -4.44212 0.0025 0.938927 0.915575 2.43783 0.00532523 100 4 1 8.18067e-07 
-0.246146 -0.0644719 -3.86429 0.0025 0.946491 0.9259 2.44566 0.00528267 101 4 1 4.93077e-07 
-0.243514 -0.0560842 -3.7309 0.0025 0.953579 0.935655 2.45295 0.0052434 102 4 1 1.40681e-06 
-0.240902 -0.0470387 -4.38967 0.0025 0.960966 0.945831 2.46054 0.0052031 103 4 1 1.55293e-06 
-0.238311 -0.0372148 -4.46486 0.0025 0.968755 0.956544 2.46853 0.00516126 104 4 1 4.04701e-07 
-0.235741 -0.0282699 -3.63141 0.0025 0.976007 0.966549 2.4759 0.00512292 105 4 1 -3.1048e-07 
-0.233188 -0.0212254 -2.88383 0.0025 0.98227 0.975293 2.48218 0.00509025 106 4 1 1.46625e-06 
-0.230651 -0.0137332 -4.48672 0.0025 0.989065 0.984839 2.48904 0.00505528 107 4 1 3.34128e-06 
-0.228133 -0.00223288 -6.08824 0.0025 0.9977 0.996782 2.49783 0.00501153 108 4 1 -7.86985e-07 
-0.225639 0.00731638 -2.44403 0.0025 1.00483 1.0066 2.50497 0.00497597 109 4 1 -4.18539e-06 
-0.223157 0.00887988 0.638596 0.0025 1.00762 1.0107 2.50756 0.00496217 110 4 1 1.34651e-06 
-0.220677 0.011492 -3.92814 0.0025 1.01123 1.01597 2.51113 0.00494448 111 4 1 5.54195e-06 
-0.218212 0.0233173 -6.55225 0.0025 1.01921 1.02699 2.51925 0.00490578 112 4 1 -1.43188e-06 
-0.215771 0.031723 -1.56951 0.0025 1.02553 1.03572 2.5255 0.00487553 113 4 1 -4.73055e-06 
-0.213337 0.0320176 0.544648 0.0025 1.02655 1.03727 2.52641 0.00487067 114 3 1 -1.92053e-06 
-0.2109 0.0301026 1.14344 0.0025 1.02503 1.03521 2.5249 0.00487788 115 4 1 -4.46245e-07 
-0.208459 0.0275651 1.28799 0.0025 1.02288 1.03218 2.52276 0.00488818 116 4 1 -8.22993e-08 
-0.206012 0.0248202 1.35489 0.0025 1.02051 1.02884 2.52042 0.00489951 117 4 1 1.62774e-08 
-0.203559 0.0219557 1.40219 0.0025 1.01804 1.02536 2.51797 0.00491138 118 4 1 6.32279e-08 
-0.201101 0.0190102 1.4334 0.0025 1.01553 1.02182 2.51548 0.00492354 119 4 1 1.19023e-07 
-0.198636 0.0160449 1.43043 0.0025 1.01303 1.0183 2.51299 0.00493571 120 4 1 1.88416e-07 
-0.196165 0.0131548 1.3775 0.0025 1.01062 1.01491 2.51059 0.00494748 121 4 1 2.56935e-07 
-0.193688 0.0104505 1.2703 0.0025 1.00839 1.01178 2.50837 0.00495842 122 4 1 3.07408e-07 
-0.191207 0.00803298 1.11768 0.0025 1.00642 1.00901 2.5064 0.00496813 123 4 1 3.29231e-07 
-0.18872 0.00597119 0.937677 0.0025 1.00475 1.00667 2.50474 0.00497637 124 4 1 3.21364e-07 
-0.18623 0.00429274 0.751047 0.0025 1.0034 1.00478 2.50339 0.00498305 125 4 1 2.90228e-07 
-0.183737 0.00298601 0.575624 0.0025 1.00236 1.00332 2.50235 0.00498823 126 4 1 2.45487e-07 
-0.181242 0.00201077 0.423228 0.0025 1.00159 1.00223 2.50158 0.00499208 127 4 1 1.96353e-07 
-0.178745 0.00131137 0.299228 0.0025 1.00103 1.00145 2.50103 0.00499484 128 4 1 1.49592e-07 
-0.176247 0.000828385 0.20382 0.0025 1.00065 1.00092 2.50065 0.00499675 129 4 1 1.09118e-07 
-0.173748 0.000506731 0.133927 0.0025 1.0004 1.00056 2.5004 0.00499801 130 4 1 7.64742e-08 
-0.171249 0.000299961 0.0849463 0.0025 1.00024 1.00033 2.50023 0.00499882 131 4 1 5.1604e-08 
-0.168749 0.000171626 0.0520067 0.0025 1.00013 1.00019 2.50013 0.00499933 132 4 1 3.35622e-08 
-0.16625 9.47497e-05 0.0307124 0.0025 1.00007 1.00011 2.50007 0.00499963 133 4 1 2.10421e-08 
-0.16375 5.03509e-05 0.0174707 0.0025 1.00004 1.00006 2.50004 0.0049998 134 4 1 1.27102e-08 
-0.16125 2.56717e-05 0.00955273 0.0025 1.00002 1.00003 2.50002 0.0049999 135 4 1 7.38752e-09 
-0.15875 1.25023e-05 0.00500536 0.0025 1.00001 1.00001 2.50001 0.00499995 136 4 1 4.12354e-09 
-0.15625 5.78029e-06 0.00250249 0.0025 1 1.00001 2.5 0.00499998 137 4 1 2.20409e-09 
-0.15375 2.51476e-06 0.00118658 0.0025 1 1 2.5 0.00499999 138 4 1 1.12365e-09 
-0.15125 1.01586e-06 0.000528833 0.0025 1 1 2.5 0.005 139 4 1 5.43243e-10 
-0.14875 3.72798e-07 0.000218475 0.0025 1 1 2.5 0.005 140 4 1 2.46984e-10 
-0.14625 1.19405e-07 8.17014e-05 0.0025 1 1 2.5 0.005 141 4 1 1.04233e-10 
-0.14375 3.05274e-08 2.6421e-05 0.0025 1 1 2.5 0.005 142 4 1 3.98685e-11 
-0.14125 4.57414e-09 6.53076e-06 0.0025 1 1 2.5 0.005 143 4 1 1.34818e-11 
-0.13875 -5.78265e-10 3.87902e-07 0.0025 1 1 2.5 0.005 144 4 1 3.58186e-12 
-0.13625 3.66588e-10 -7.05701e-07 0.0025 1 1 2.5 0.005 145 5 1 6.43492e-14 
-0.13375 8.13981e-10 -6.36095e-09 0.0025 1 1 2.5 0.005 146 3 1 -3.79033e-13 
-0.13125 6.29359e-10 1.33072e-07 0.0025 1 1 2.5 0.005 147 4 1 -4.37794e-14 
-0.12875 3.68055e-10 1.24244e-07 0.0025 1 1 2.5 0.005 148 4 1 4.67139e-14 
-0.12625 1.8007e-10 7.77659e-08 0.0025 1 1 2.5 0.005 149 4 1 5.17531e-14 
-0.12375 7.532e-11 3.97872e-08 0.0025 1 1 2.5 0.005 150 4 1 3.46976e-14 
-0.12125 2.64562e-11 1.70893e-08 0.0025 1 1 2.5 0.005 151 4 1 1.83515e-14 
-0.11875 7.27202e-12 6.08622e-09 0.0025 1 1 2.5 0.005 152 4 1 8.09557e-15 
-0.11625 1.19438e-12 1.62794e-09 0.0025 1 1 2.5 0.005 153 4 1 2.99885e-15 
-0.11375 -1.23027e-13 1.69848e-10 0.0025 1 1 2.5 0.005 154 4 1 8.63309e-16 
-0.11125 7.44925e-15 -1.62231e-10 0.0025 1 1 2.5 0.005 155 5 1 4.47642e-17 
-0.10875 1.22788e-13 -2.84217e-13 0.0025 1 1 2.5 0.005 156 3 1 -8.10019e-17 
-0.10625 8.97933e-14 1.98952e-11 0.0025 1 1 2.5 0.005 157 4 1 -6.75016e-18 
-0.10375 4.66744e-14 2.19416e-11 0.0025 1 1 2.5 0.005 158 4 1 1.20792e-17 
-0.10125 1.91765e-14 1.04023e-11 0.0025 1 1 2.5 0.005 159 4 1 6.03961e-18 
-0.09875 2.40393e-15 6.59384e-12 0.0025 1 1 2.5 0.005 160 4 1 6.75016e-18 
-0.09625 -1.14967e-15 -2.27374e-13 0.0025 1 1 2.5 0.005 161 5 1 1.42109e-18 
-0.09375 -9.92951e-16 -1.7053e-13 0.0025 1 1 2.5 0.005 162 5 1 -1.42109e-18 
-0.09125 -1.07987e-15 -1.13687e-13 0.0025 1 1 2.5 0.005 163 5 1 -1.42109e-18 
-0.08875 -1.25386e-15 -1.12104e-44 0.0025 1 1 2.5 0.005 164 5 1 -1.42109e-18 
-0.08625 -1.53187e-15 -1.12104e-44 0.0025 1 1 2.5 0.005 165 5 1 -1.42109e-18 
-0.08375 -2.01857e-15 -1.13687e-13 0.0025 1 1 2.5 0.005 166 5 1 -1.42109e-18 
-0.08125 -2.70299e-16 -1.13687e-13 0.0025 1 1 2.5 0.005 167 5 1 -3.90799e-18 
-0.07875 -3.0706e-15 -1.7053e-13 0.0025 1 1 2.5 0.005 168 5 1 7.10543e-18 
-0.07625 -1.29618e-15 1.7053e-13 0.0025 1 1 2.5 0.005 169 5 1 -1.45661e-17 
-0.07375 -1.12797e-15 1.13687e-13 0.0025 1 1 2.5 0.005 170 5 1 9.23706e-18 
-0.07125 9.14075e-16 0 0.0025 1 1 2.5 0.005 171 5 1 -1.24345e-17 
-0.06875 -4.33381e-17 3.9443e-29 0.0025 1 1 2.5 0.005 172 5 1 1.10134e-17 
-0.06625 1.91136e-15 5.68434e-14 0.0025 1 1 2.5 0.005 173 5 1 -1.59872e-17 
-0.06375 1.248e-15 -1.66252e-26 0.0025 1 1 2.5 0.005 174 4 1 -2.13163e-18 
-0.06125 -1.27573e-15 -1.13687e-13 0.0025 1 1 2.5 0.005 175 3 1 3.12639e-17 
-0.05875 7.54706e-16 5.68434e-14 0.0025 1 1 2.5 0.005 176 4 1 -2.62901e-17 
-0.05625 -8.71311e-16 2.27374e-13 0.0025 1 1 2.5 0.005 177 5 1 2.84217e-18 
-0.05375 1.06435e-15 -7.88861e-29 0.0025 1 1 2.5 0.005 178 4 1 3.55271e-19 
-0.05125 -2.31806e-16 1.38051e-27 0.0025 1 1 2.5 0.005 179 5 1 -1.77636e-18 
-0.04875 2.79384e-15 -8.96831e-44 0.0025 1 1 2.5 0.005 180 5 1 -3.90799e-18 
-0.04625 2.22571e-15 -1.12104e-43 0.0025 1 1 2.5 0.005 181 5 1 -7.10543e-19 
-0.04375 6.11238e-16 1.13687e-13 0.0025 1 1 2.5 0.005 182 5 1 -1.06581e-18 
-0.04125 1.67556e-16 -3.97904e-13 0.0025 1 1 2.5 0.005 183 5 1 -3.90799e-18 
-0.03875 -2.5607e-15 -2.84217e-13 0.0025 1 1 2.5 0.005 184 5 1 2.4869e-18 
-0.03625 -5.17857e-15 -5.11591e-13 0.0025 1 1 2.5 0.005 185 4 1 -1.3145e-17 
-0.03375 1.7538e-15 1.7053e-12 0.0025 1 1 2.5 0.005 186 4 1 -1.06581e-17 
-0.03125 -2.08294e-15 -1.13687e-13 0.0025 1 1 2.5 0.005 187 3 1 5.25802e-17 
-0.02875 -2.75076e-15 -3.41061e-13 0.0025 1 1 2.5 0.005 188 4 1 -4.05009e-17 
-0.02625 -2.22676e-15 -1.13687e-13 0.0025 1 1 2.5 0.005 189 5 1 9.23706e-18 
-0.02375 -2.79503e-15 -1.93271e-27 0.0025 1 1 2.5 0.005 190 3 1 -2.4869e-18 
-0.02125 -2.52861e-15 2.2877e-27 0.0025 1 1 2.5 0.005 191 4 1 4.26326e-18 
-0.01875 5.5171e-17 3.97904e-13 0.0025 1 1 2.5 0.005 192 5 1 -6.03961e-18 
-0.01625 -1.85025e-15 -5.11591e-13 0.0025 1 1 2.5 0.005 193 4 1 1.77636e-18 
-0.01375 -1.18303e-15 8.52651e-13 0.0025 1 1 2.5 0.005 194 3 1 1.42109e-18 
-0.01125 -1.272e-15 -2.27374e-13 0.0025 1 1 2.5 0.005 195 5 1 -1.42109e-18 
-0.00875 4.60341e-16 -3.41061e-13 0.0025 1 1 2.5 0.005 196 4 1 3.55271e-19 
-0.00625 5.45751e-16 -4.93038e-29 0.0025 1 1 2.5 0.005 197 4 1 -1.77636e-18 
-0.00375 -2.9086e-17 -1.13687e-13 0.0025 1 1 2.5 0.005 198 4 1 3.55271e-19 
-0.00125 -1.93367e-16 -1.7053e-13 0.0025 1 1 2.5 0.005 199 4 1 -1.42109e-18 
0.00125 -6.02787e-17 5.68434e-14 0.0025 1 1 2.5 0.005 200 4 1 -7.10543e-19 
0.00375 -2.10245e-16 5.68434e-13 0.0025 1 1 2.5 0.005 201 5 1 7.10543e-19 
0.00625 -6.28649e-16 -7.95808e-13 0.0025 1 1 2.5 0.005 202 3 1 7.10543e-19 
0.00875 -1.17878e-15 8.52651e-13 0.0025 1 1 2.5 0.005 203 4 1 1.2326e-33 
0.01125 -1.11654e-15 -5.11591e-13 0.0025 1 1 2.5 0.005 204 4 1 7.10543e-19 
0.01375 5.21551e-16 6.25278e-13 0.0025 1 1 2.5 0.005 205 4 1 -4.26326e-18 
0.01625 -1.56049e-16 3.97904e-13 0.0025 1 1 2.5 0.005 206 5 1 -7.10543e-19 
0.01875 -6.25364e-16 2.27374e-13 0.0025 1 1 2.5 0.005 207 4 1 3.55271e-19 
0.02125 -1.85455e-16 -6.82121e-13 0.0025 1 1 2.5 0.005 208 3 1 4.61853e-18 
0.02375 1.1668e-15 -1.13687e-13 0.0025 1 1 2.5 0.005 209 3 1 1.42109e-18 
0.02625 1.15207e-15 -1.13687e-13 0.0025 1 1 2.5 0.005 210 5 1 -8.17124e-18 
0.02875 -3.53825e-16 -3.33294e-27 0.0025 1 1 2.5 0.005 211 4 1 -7.10543e-19 
0.03125 5.56823e-15 5.68434e-14 0.0025 1 1 2.5 0.005 212 3 1 4.26326e-18 
0.03375 4.22175e-15 3.29349e-27 0.0025 1 1 2.5 0.005 213 4 1 3.55271e-18 
0.03625 3.90871e-15 3.97904e-13 0.0025 1 1 2.5 0.005 214 5 1 -1.74083e-17 
0.03875 2.89864e-15 2.27374e-13 0.0025 1 1 2.5 0.005 215 4 1 1.77636e-17 
0.04125 4.32535e-15 -4.54747e-13 0.0025 1 1 2.5 0.005 216 5 1 -1.3145e-17 
0.04375 1.90698e-15 -7.38964e-13 0.0025 1 1 2.5 0.005 217 4 1 -4.9738e-18 
0.04625 5.81993e-15 6.25278e-13 0.0025 1 1 2.5 0.005 218 3 1 1.77636e-17 
0.04875 2.22904e-15 3.97904e-13 0.0025 1 1 2.5 0.005 219 4 1 -1.3145e-17 
0.05125 1.55033e-15 5.68434e-13 0.0025 1 1 2.5 0.005 220 4 1 -5.68434e-18 
0.05375 2.67534e-15 -3.41061e-13 0.0025 1 1 2.5 0.005 221 3 1 1.38556e-17 
0.05625 4.20341e-16 1.63787e-26 0.0025 1 1 2.5 0.005 222 5 1 1.24345e-17 
0.05875 5.65672e-15 1.13687e-13 0.0025 1 1 2.5 0.005 223 5 1 -6.75016e-17 
0.06125 4.27025e-15 -2.27374e-13 0.0025 1 1 2.5 0.005 224 4 1 6.32383e-17 
0.06375 3.55065e-15 -1.13687e-13 0.0025 1 1 2.5 0.005 225 4 1 1.77636e-18 
0.06625 6.72878e-16 -5.68434e-14 0.0025 1 1 2.5 0.005 226 5 1 -2.8777e-17 
0.06875 4.93182e-15 -1.13687e-13 0.0025 1 1 2.5 0.005 227 5 1 1.88294e-17 
0.07125 1.25433e-15 -1.13687e-13 0.0025 1 1 2.5 0.005 228 5 1 -1.52767e-17 
0.07375 3.90179e-15 -1.13687e-13 0.0025 1 1 2.5 0.005 229 5 1 8.88178e-18 
0.07625 3.83234e-15 4.48416e-44 0.0025 1 1 2.5 0.005 230 5 1 -1.35003e-17 
