# Time [s]: 0.225498
# Columns: pos [m], vel [m/s], acc [m/s^2], mass [kg], dens [kg/m^3], pres [Pa], ene [J/kg], sml [m], id, neighbor, alpha, gradh, ...additional?
1.35045 -0.673148 0.00121801 0.0025 0.511015 0.432684 2.15244 0.00978445 0 4 1 -0.000134226 
1.35523 -0.673155 0.00128917 0.0025 0.536868 0.426145 1.94998 0.00931328 1 4 1 0.000179245 
1.35977 -0.673161 0.00134992 0.0025 0.548194 0.430811 1.96844 0.00912085 2 3 1 -1.90586e-05 
1.36435 -0.673169 0.00140645 0.0025 0.545927 0.429144 1.96458 0.00915874 3 5 1 3.48619e-06 
1.36892 -0.673177 0.0014668 0.0025 0.546322 0.429296 1.96451 0.00915212 4 4 1 -1.38833e-07 
1.3735 -0.673186 0.0015464 0.0025 0.546329 0.429262 1.96427 0.00915199 5 4 1 1.43482e-07 
1.37808 -0.673196 0.00166283 0.0025 0.546349 0.429257 1.96421 0.00915167 6 4 1 -3.86115e-09 
1.38265 -0.673207 0.00182773 0.0025 0.546358 0.42925 1.96414 0.00915151 7 4 1 7.75378e-09 
1.38723 -0.673218 0.00204073 0.0025 0.546368 0.429245 1.96408 0.00915134 8 4 1 4.15817e-09 
1.3918 -0.67323 0.00229093 0.0025 0.546376 0.429239 1.96403 0.00915121 9 4 1 4.7689e-09 
1.39638 -0.673242 0.00256378 0.0025 0.546382 0.429233 1.96398 0.00915111 10 4 1 -3.01435e-09 
1.40095 -0.673256 0.00284675 0.0025 0.546387 0.429226 1.96393 0.00915103 11 4 1 3.91433e-09 
1.40553 -0.67327 0.00313331 0.0025 0.54639 0.429218 1.96388 0.00915097 12 4 1 2.00865e-09 
1.41011 -0.673285 0.00343009 0.0025 0.546392 0.429209 1.96383 0.00915094 13 3 1 2.67765e-09 
1.41468 -0.673301 0.00376336 0.0025 0.546391 0.4292 1.96379 0.00915095 14 4 1 1.10952e-09 
1.41926 -0.673319 0.00416783 0.0025 0.54639 0.42919 1.96375 0.00915098 15 4 1 -2.77685e-09 
1.42383 -0.673339 0.00465186 0.0025 0.546387 0.429178 1.96371 0.00915102 16 4 1 3.5206e-09 
1.42841 -0.673359 0.0051697 0.0025 0.546382 0.429165 1.96367 0.00915111 17 4 1 1.89345e-11 
1.43298 -0.673382 0.00564859 0.0025 0.546375 0.429151 1.96363 0.00915122 18 4 1 -2.6054e-09 
1.43756 -0.673407 0.00607333 0.0025 0.546367 0.429136 1.96359 0.00915136 19 4 1 1.32324e-09 
1.44213 -0.673435 0.00654819 0.0025 0.546357 0.429119 1.96355 0.00915152 20 4 1 -4.24648e-10 
1.44671 -0.673466 0.00723783 0.0025 0.546345 0.429101 1.9635 0.00915172 21 4 1 -9.52392e-10 
1.45129 -0.673501 0.00820473 0.0025 0.546331 0.42908 1.96346 0.00915195 22 4 1 -1.72482e-09 
1.45586 -0.673539 0.00931294 0.0025 0.546315 0.429057 1.96342 0.00915223 23 4 1 -3.29937e-09 
1.46044 -0.673581 0.0103502 0.0025 0.546295 0.429031 1.96337 0.00915256 24 4 1 -1.61522e-09 
1.46502 -0.673628 0.0112831 0.0025 0.546273 0.429003 1.96332 0.00915294 25 4 1 -2.34429e-09 
1.46959 -0.673682 0.0123648 0.0025 0.546247 0.428971 1.96326 0.00915336 26 4 1 -3.99902e-09 
1.47417 -0.673743 0.0139295 0.0025 0.546219 0.428935 1.96321 0.00915384 27 4 1 -3.62113e-09 
1.47875 -0.673812 0.0160399 0.0025 0.546185 0.428896 1.96314 0.0091544 28 4 1 -5.24477e-09 
1.48332 -0.673887 0.0183884 0.0025 0.546147 0.42885 1.96307 0.00915505 29 4 1 -7.53518e-09 
1.4879 -0.673972 0.0206585 0.0025 0.546102 0.428798 1.96299 0.00915579 30 4 1 -6.39192e-09 
1.49248 -0.674069 0.0229612 0.0025 0.546052 0.42874 1.96291 0.00915664 31 4 1 -5.31256e-09 
1.49706 -0.67418 0.0257144 0.0025 0.545995 0.428674 1.96282 0.0091576 32 4 1 -9.22583e-09 
-0.498364 -0.674306 0.0291374 0.0025 0.54593 0.428601 1.96271 0.00915868 33 4 1 -1.05532e-08 
-0.493784 -0.674448 0.033084 0.0025 0.545858 0.428519 1.9626 0.0091599 34 4 1 -8.39348e-09 
-0.489204 -0.674605 0.0371818 0.0025 0.545776 0.428427 1.96247 0.00916127 35 4 1 -1.02743e-08 
-0.484623 -0.674777 0.0410376 0.0025 0.545685 0.428325 1.96233 0.00916279 36 4 1 -9.07842e-09 
-0.480041 -0.674965 0.044378 0.0025 0.545587 0.428215 1.96218 0.00916444 37 4 1 -3.24823e-09 
-0.475458 -0.675164 0.046447 0.0025 0.545485 0.428101 1.96202 0.00916616 38 4 1 1.33992e-09 
-0.470875 -0.675368 0.0463834 0.0025 0.545383 0.427988 1.96187 0.00916787 39 4 1 8.81386e-09 
-0.466291 -0.675565 0.0436364 0.0025 0.545288 0.427883 1.96172 0.00916946 40 4 1 2.17643e-08 
-0.461705 -0.675737 0.0356707 0.0025 0.545211 0.427796 1.9616 0.00917077 41 4 1 2.57304e-08 
-0.45712 -0.675865 0.03052 0.0025 0.545154 0.427733 1.96151 0.00917172 42 4 1 5.48899e-08 
-0.452534 -0.675946 0.00145741 0.0025 0.545144 0.427722 1.96149 0.00917189 43 5 1 1.03841e-07 
-0.447948 -0.675767 -0.0469138 0.0025 0.545218 0.427803 1.96159 0.00917064 44 4 1 1.04692e-07 
-0.443363 -0.675556 -0.0439627 0.0025 0.545382 0.427992 1.96182 0.00916788 45 4 1 3.87296e-07 
-0.43878 -0.674916 -0.288362 0.0025 0.545862 0.428539 1.9625 0.00915983 46 4 1 1.01152e-06 
-0.434203 -0.672628 -0.766414 0.0025 0.547103 0.429911 1.96428 0.00913904 47 4 1 1.34558e-06 
-0.429641 -0.668361 -1.15296 0.0025 0.549256 0.432272 1.96737 0.00910322 48 4 1 1.26445e-06 
-0.4251 -0.662891 -1.37577 0.0025 0.552126 0.435436 1.97147 0.0090559 49 4 1 1.46155e-06 
-0.420585 -0.65624 -1.7294 0.0025 0.555698 0.439396 1.97655 0.0089977 50 4 1 2.12132e-06 
-0.416102 -0.647802 -2.23595 0.0025 0.560213 0.444411 1.98296 0.00892518 51 4 1 2.78511e-06 
-0.41166 -0.637253 -2.76623 0.0025 0.56582 0.450649 1.99087 0.00883674 52 4 1 3.23176e-06 
-0.407265 -0.624811 -3.23658 0.0025 0.572462 0.458062 2.00019 0.0087342 53 4 1 3.31674e-06 
-0.402925 -0.610946 -3.52528 0.0025 0.579888 0.466386 2.01053 0.00862235 54 4 1 3.09603e-06 
-0.398642 -0.596502 -3.65548 0.0025 0.587752 0.475252 2.02139 0.00850698 55 4 1 2.80644e-06 
-0.394418 -0.581957 -3.6918 0.0025 0.595784 0.484358 2.03239 0.00839231 56 4 1 2.51938e-06 
-0.39025 -0.567593 -3.66457 0.0025 0.603801 0.493499 2.04328 0.00828088 57 4 1 2.20425e-06 
-0.386136 -0.553714 -3.56995 0.0025 0.611667 0.502518 2.05388 0.00817438 58 4 1 1.98769e-06 
-0.382075 -0.540355 -3.50049 0.0025 0.619328 0.511349 2.06413 0.00807326 59 4 1 1.80145e-06 
-0.378063 -0.527502 -3.39083 0.0025 0.626769 0.519968 2.07401 0.00797742 60 4 1 1.65124e-06 
-0.374097 -0.51519 -3.30826 0.0025 0.633988 0.528374 2.08352 0.00788659 61 4 1 1.65653e-06 
-0.370176 -0.503234 -3.28481 0.0025 0.641069 0.536659 2.0928 0.00779947 62 4 1 1.73099e-06 
-0.366297 -0.491446 -3.30226 0.0025 0.648117 0.544941 2.10196 0.00771466 63 4 1 1.88874e-06 
-0.362461 -0.479607 -3.40097 0.0025 0.655251 0.553362 2.11118 0.00763066 64 4 1 2.0733e-06 
-0.358667 -0.467523 -3.53003 0.0025 0.662579 0.562047 2.12059 0.00754627 65 4 1 2.21307e-06 
-0.354914 -0.455137 -3.67627 0.0025 0.670147 0.571055 2.13025 0.00746104 66 4 1 2.29676e-06 
-0.351205 -0.442452 -3.80715 0.0025 0.677958 0.580393 2.14014 0.00737508 67 4 1 2.31413e-06 
-0.347539 -0.429528 -3.91271 0.0025 0.685972 0.590016 2.15022 0.00728893 68 4 1 2.24902e-06 
-0.343916 -0.416562 -3.95932 0.0025 0.694114 0.599841 2.16039 0.00720343 69 4 1 2.24281e-06 
-0.340335 -0.403552 -4.05119 0.0025 0.702359 0.609838 2.17062 0.00711886 70 4 1 2.19283e-06 
-0.336797 -0.390572 -4.06995 0.0025 0.710674 0.619965 2.18086 0.00703557 71 4 1 2.07459e-06 
-0.3333 -0.377726 -4.07672 0.0025 0.718988 0.630141 2.19103 0.00695422 72 4 1 2.02615e-06 
-0.329842 -0.36499 -4.09239 0.0025 0.727292 0.640351 2.20111 0.00687482 73 4 1 1.97826e-06 
-0.326425 -0.352384 -4.09903 0.0025 0.735581 0.650591 2.21111 0.00679735 74 4 1 1.94485e-06 
-0.323045 -0.339936 -4.1211 0.0025 0.74386 0.660864 2.22103 0.0067217 75 4 1 1.89539e-06 
-0.319703 -0.32758 -4.12117 0.0025 0.752122 0.671161 2.23086 0.00664786 76 4 1 1.82987e-06 
-0.316397 -0.315399 -4.12056 0.0025 0.760352 0.681464 2.24059 0.0065759 77 4 1 1.79215e-06 
-0.313127 -0.303401 -4.12568 0.0025 0.768552 0.691774 2.25022 0.00650574 78 4 1 1.75475e-06 
-0.309891 -0.291483 -4.12959 0.0025 0.776727 0.702098 2.25976 0.00643726 79 4 1 1.73433e-06 
-0.306689 -0.279726 -4.15051 0.0025 0.78489 0.712448 2.26923 0.00637032 80 4 1 1.70282e-06 
-0.30352 -0.268058 -4.15674 0.0025 0.79304 0.722824 2.27862 0.00630485 81 4 1 1.6281e-06 
-0.300384 -0.256534 -4.13962 0.0025 0.801153 0.733197 2.28791 0.00624101 82 4 1 1.61251e-06 
-0.297279 -0.245176 -4.16526 0.0025 0.80924 0.743578 2.29712 0.00617864 83 4 1 1.56261e-06 
-0.294205 -0.23392 -4.13816 0.0025 0.817297 0.753963 2.30624 0.00611773 84 4 1 1.55313e-06 
-0.291161 -0.222804 -4.18164 0.0025 0.825336 0.764366 2.31529 0.00605814 85 4 1 1.53432e-06 
-0.288147 -0.211746 -4.17138 0.0025 0.83337 0.774802 2.32427 0.00599973 86 4 1 1.48831e-06 
-0.285161 -0.200808 -4.19151 0.0025 0.841383 0.785249 2.33319 0.0059426 87 4 1 1.42723e-06 
-0.282204 -0.190032 -4.15461 0.0025 0.849353 0.795682 2.342 0.00588683 88 4 1 1.41125e-06 
-0.279274 -0.179354 -4.1879 0.0025 0.857292 0.806112 2.35073 0.00583232 89 4 1 1.35572e-06 
-0.276372 -0.168838 -4.13353 0.0025 0.865189 0.816528 2.35936 0.00577908 90 4 1 1.40629e-06 
-0.273495 -0.158406 -4.23866 0.0025 0.873094 0.826991 2.36796 0.00572676 91 4 1 1.35575e-06 
-0.270645 -0.147947 -4.16779 0.0025 0.880997 0.837486 2.37651 0.00567539 92 4 1 1.28188e-06 
-0.26782 -0.137795 -4.20408 0.0025 0.888848 0.847957 2.38496 0.00562526 93 4 1 1.32839e-06 
-0.26502 -0.127494 -4.22483 0.0025 0.896705 0.858461 2.39337 0.00557597 94 4 1 1.10643e-06 
-0.262244 -0.117627 -4.05288 0.0025 0.904435 0.868843 2.4016 0.00552831 95 4 1 1.25424e-06 
-0.259491 -0.107805 -4.26064 0.0025 0.912155 0.879249 2.40978 0.00548153 96 4 1 1.27928e-06 
-0.256762 -0.0977894 -4.17032 0.0025 0.919926 0.889741 2.41797 0.00543522 97 4 1 9.79555e-07 
-0.254056 -0.0883728 -4.0295 0.0025 0.927536 0.900075 2.42594 0.00539063 98 4 1 1.3945e-06 
-0.251371 -0.0786431 -4.45344 0.0025 0.935289 0.910626 2.43404 0.00534594 99 4 1 1.23192e-06 
-0.24871 -0.0686635 -4.18283 0.0025 0.943091 0.921248 2.44215 0.00530172 100 4 1 4.43364e-07 
-0.24607 -0.0598897 -3.65548 0.0025 0.950357 0.931216 2.44964 0.00526118 101 4 1 1.01067e-06 
-0.243448 -0.0512683 -4.15176 0.0025 0.957577 0.941166 2.45706 0.00522151 102 4 1 1.72231e-06 
-0.240848 -0.0415044 -4.59356 0.0025 0.965336 0.951838 2.46503 0.00517955 103 4 1 9.05556e-07 
-0.238269 -0.0319811 -4.02593 0.0025 0.972948 0.962318 2.4728 0.00513902 104 4 1 -2.46697e-07 
-0.235709 -0.0242157 -3.02549 0.0025 0.979554 0.97149 2.47946 0.00510437 105 4 1 5.43346e-07 
-0.233164 -0.0173197 -3.63949 0.0025 0.985936 0.98046 2.48587 0.00507132 106 4 1 3.13375e-06 
-0.230637 -0.00725463 -5.97041 0.0025 0.994062 0.991769 2.49414 0.00502987 107 4 1 1.34386e-06 
-0.228134 0.00431456 -4.30557 0.0025 1.00238 1.00319 2.50255 0.00498815 108 4 1 -3.86434e-06 
-0.225649 0.00866389 0.15508 0.0025 1.00665 1.00922 2.50666 0.00496698 109 4 1 -1.40565e-06 
-0.223167 0.00912287 -1.56582 0.0025 1.00914 1.013 2.50902 0.00495473 110 4 1 5.30147e-06 
-0.220694 0.0182516 -6.73315 0.0025 1.01586 1.02239 2.51587 0.00492194 111 4 1 1.77041e-06 
-0.218245 0.0298024 -3.73837 0.0025 1.02377 1.03326 2.52379 0.0048839 112 4 1 -4.63138e-06 
-0.215811 0.0324281 0.215433 0.0025 1.02671 1.03744 2.5266 0.00486991 113 3 1 -3.10609e-06 
-0.213375 0.0310155 1.00583 0.0025 1.02579 1.03626 2.52564 0.00487431 114 4 1 -7.77651e-07 
-0.210936 0.0286341 1.24746 0.0025 1.0238 1.03347 2.52367 0.00488379 115 4 1 -1.68171e-07 
-0.208492 0.0259592 1.32848 0.0025 1.02149 1.03023 2.52139 0.0048948 116 4 1 -1.16752e-08 
-0.206041 0.0231423 1.3827 0.0025 1.01906 1.0268 2.51898 0.00490647 117 4 1 4.05007e-08 
-0.203585 0.0202222 1.42561 0.0025 1.01656 1.02327 2.5165 0.00491855 118 4 1 9.0753e-08 
-0.201123 0.0172471 1.44169 0.0025 1.01403 1.01971 2.51399 0.0049308 119 4 1 1.57924e-07 
-0.198654 0.0143015 1.41176 0.0025 1.01157 1.01624 2.51154 0.00494283 120 4 1 2.31563e-07 
-0.19618 0.0114963 1.32585 0.0025 1.00924 1.01298 2.50922 0.00495421 121 4 1 2.92965e-07 
-0.1937 0.00894236 1.18818 0.0025 1.00715 1.01004 2.50714 0.00496449 122 4 1 3.2772e-07 
-0.191216 0.00672529 1.01453 0.0025 1.00536 1.00752 2.50534 0.00497336 123 4 1 3.31072e-07 
-0.188727 0.00488994 0.826066 0.0025 1.00388 1.00545 2.50387 0.00498068 124 4 1 3.07339e-07 
-0.186235 0.00343873 0.642761 0.0025 1.00272 1.00382 2.50271 0.00498644 125 4 1 2.65846e-07 
-0.18374 0.00234012 0.479187 0.0025 1.00185 1.0026 2.50184 0.00499078 126 4 1 2.16626e-07 
-0.181244 0.00154181 0.343153 0.0025 1.00121 1.00171 2.50121 0.00499393 127 4 1 1.67674e-07 
-0.178746 0.000983757 0.236552 0.0025 1.00077 1.00109 2.50077 0.00499613 128 4 1 1.24026e-07 
-0.176248 0.000607794 0.157213 0.0025 1.00048 1.00067 2.50048 0.00499761 129 4 1 8.80331e-08 
-0.173749 0.000363416 0.100822 0.0025 1.00029 1.0004 2.50028 0.00499857 130 4 1 6.01158e-08 
-0.171249 0.000210081 0.0624029 0.0025 1.00016 1.00023 2.50016 0.00499918 131 4 1 3.95496e-08 
-0.16875 0.000117227 0.0372591 0.0025 1.00009 1.00013 2.50009 0.00499954 132 4 1 2.50782e-08 
-0.16625 6.30043e-05 0.0214354 0.0025 1.00005 1.00007 2.50005 0.00499975 133 4 1 1.53215e-08 
-0.16375 3.25168e-05 0.0118598 0.0025 1.00003 1.00004 2.50003 0.00499987 134 4 1 9.00958e-09 
-0.16125 1.60498e-05 0.00629306 0.0025 1.00001 1.00002 2.50001 0.00499994 135 4 1 5.09023e-09 
-0.15875 7.53383e-06 0.00318999 0.0025 1.00001 1.00001 2.50001 0.00499997 136 4 1 2.75598e-09 
-0.15625 3.33641e-06 0.00153624 0.0025 1 1 2.5 0.00499999 137 4 1 1.42473e-09 
-0.15375 1.37751e-06 0.000697234 0.0025 1 1 2.5 0.00499999 138 4 1 6.99598e-10 
-0.15125 5.20264e-07 0.000294577 0.0025 1 1 2.5 0.005 139 4 1 3.23862e-10 
-0.14875 1.73801e-07 0.000113538 0.0025 1 1 2.5 0.005 140 4 1 1.39698e-10 
-0.14625 4.78679e-08 3.84083e-05 0.0025 1 1 2.5 0.005 141 4 1 5.50896e-11 
-0.14375 8.84069e-09 1.04088e-05 0.0025 1 1 2.5 0.005 142 4 1 1.92457e-11 
-0.14125 -1.6416e-10 1.62027e-06 0.0025 1 1 2.5 0.005 143 4 1 5.63337e-12 
-0.13875 1.08574e-11 -9.65921e-07 0.0025 1 1 2.5 0.005 144 5 1 7.01478e-13 
-0.13625 8.47485e-10 -1.23107e-07 0.0025 1 1 2.5 0.005 145 3 1 -4.92788e-13 
-0.13375 7.36928e-10 1.26175e-07 0.0025 1 1 2.5 0.005 146 4 1 -1.03256e-13 
-0.13125 4.56589e-10 1.40267e-07 0.0025 1 1 2.5 0.005 147 4 1 3.5541e-14 
-0.12875 2.33096e-10 9.54906e-08 0.0025 1 1 2.5 0.005 148 4 1 5.76062e-14 
-0.12625 1.01449e-10 5.09589e-08 0.0025 1 1 2.5 0.005 149 4 1 4.18787e-14 
-0.12375 3.74016e-11 2.29091e-08 0.0025 1 1 2.5 0.005 150 4 1 2.33495e-14 
-0.12125 1.10567e-11 8.585e-09 0.0025 1 1 2.5 0.005 151 4 1 1.08134e-14 
-0.11875 2.1786e-12 2.50782e-09 0.0025 1 1 2.5 0.005 152 4 1 4.1517e-15 
-0.11625 -8.43005e-15 4.57646e-10 0.0025 1 1 2.5 0.005 153 4 1 1.29674e-15 
-0.11375 -5.71948e-14 -2.03727e-10 0.0025 1 1 2.5 0.005 154 5 1 2.07834e-16 
-0.11125 1.23221e-13 -3.54703e-11 0.0025 1 1 2.5 0.005 155 4 1 -1.03384e-16 
-0.10875 1.08031e-13 2.38742e-11 0.0025 1 1 2.5 0.005 156 3 1 -2.55795e-17 
-0.10625 6.08399e-14 2.52385e-11 0.0025 1 1 2.5 0.005 157 4 1 8.88178e-18 
-0.10375 2.57526e-14 1.18803e-11 0.0025 1 1 2.5 0.005 158 4 1 1.45661e-17 
-0.10125 6.23306e-15 9.09495e-12 0.0025 1 1 2.5 0.005 159 4 1 3.90799e-18 
-0.09875 -8.53456e-16 7.38964e-13 0.0025 1 1 2.5 0.005 160 5 1 3.90799e-18 
-0.09625 -9.75467e-16 -2.27374e-13 0.0025 1 1 2.5 0.005 161 5 1 -1.42109e-18 
-0.09375 -9.05856e-16 -7.84727e-44 0.0025 1 1 2.5 0.005 162 5 1 -1.42109e-18 
-0.09125 -1.01018e-15 -1.13687e-13 0.0025 1 1 2.5 0.005 163 5 1 -1.42109e-18 
-0.08875 -1.21902e-15 1.13687e-13 0.0025 1 1 2.5 0.005 164 5 1 -1.42109e-18 
-0.08625 -1.49702e-15 -1.13687e-13 0.0025 1 1 2.5 0.005 165 5 1 -1.42109e-18 
-0.08375 -1.87921e-15 -1.13687e-13 0.0025 1 1 2.5 0.005 166 5 1 -1.42109e-18 
-0.08125 -9.60925e-17 -1.13687e-13 0.0025 1 1 2.5 0.005 167 5 1 -3.90799e-18 
-0.07875 -2.89639e-15 -1.7053e-13 0.0025 1 1 2.5 0.005 168 5 1 7.10543e-18 
-0.07625 -1.50523e-15 1.7053e-13 0.0025 1 1 2.5 0.005 169 5 1 -1.45661e-17 
-0.07375 -1.26734e-15 1.13687e-13 0.0025 1 1 2.5 0.005 170 5 1 9.23706e-18 
-0.07125 9.14075e-16 0 0.0025 1 1 2.5 0.005 171 5 1 -1.24345e-17 
-0.06875 -4.33381e-17 3.9443e-29 0.0025 1 1 2.5 0.005 172 5 1 1.10134e-17 
-0.06625 1.84168e-15 5.68434e-14 0.0025 1 1 2.5 0.005 173 5 1 -1.59872e-17 
-0.06375 1.248e-15 -1.66252e-26 0.0025 1 1 2.5 0.005 174 4 1 -2.13163e-18 
-0.06125 -1.13636e-15 -1.13687e-13 0.0025 1 1 2.5 0.005 175 3 1 3.12639e-17 
-0.05875 5.80494e-16 1.7053e-13 0.0025 1 1 2.5 0.005 176 4 1 -2.62901e-17 
-0.05625 -1.04551e-15 1.13687e-13 0.0025 1 1 2.5 0.005 177 5 1 2.84217e-18 
-0.05375 1.06435e-15 -7.88861e-29 0.0025 1 1 2.5 0.005 178 4 1 3.55271e-19 
-0.05125 -2.31806e-16 1.38051e-27 0.0025 1 1 2.5 0.005 179 5 1 -1.77636e-18 
-0.04875 2.75899e-15 1.13687e-13 0.0025 1 1 2.5 0.005 180 5 1 -3.90799e-18 
-0.04625 2.24314e-15 -5.68434e-14 0.0025 1 1 2.5 0.005 181 5 1 -1.06581e-18 
-0.04375 4.89291e-16 1.7053e-13 0.0025 1 1 2.5 0.005 182 5 1 -3.55271e-19 
-0.04125 3.94017e-16 -2.27374e-13 0.0025 1 1 2.5 0.005 183 5 1 -5.68434e-18 
-0.03875 -2.16002e-15 -3.41061e-13 0.0025 1 1 2.5 0.005 184 5 1 6.03961e-18 
-0.03625 -4.16815e-15 -9.66338e-13 0.0025 1 1 2.5 0.005 185 4 1 -1.59872e-17 
-0.03375 -9.11609e-16 2.78533e-12 0.0025 1 1 2.5 0.005 186 4 1 -1.06581e-17 
-0.03125 -1.56029e-15 -9.09495e-13 0.0025 1 1 2.5 0.005 187 3 1 5.32907e-17 
-0.02875 -2.22813e-15 -4.54747e-13 0.0025 1 1 2.5 0.005 188 4 1 -4.08562e-17 
-0.02625 -2.08739e-15 -1.13687e-13 0.0025 1 1 2.5 0.005 189 5 1 9.23706e-18 
-0.02375 -2.79503e-15 -1.93271e-27 0.0025 1 1 2.5 0.005 190 3 1 -2.4869e-18 
-0.02125 -2.59829e-15 2.2877e-27 0.0025 1 1 2.5 0.005 191 4 1 4.26326e-18 
-0.01875 -1.19025e-16 1.7053e-13 0.0025 1 1 2.5 0.005 192 5 1 -6.03961e-18 
-0.01625 -1.7109e-15 -1.7053e-13 0.0025 1 1 2.5 0.005 193 4 1 1.42109e-18 
-0.01375 -1.56629e-15 8.52651e-13 0.0025 1 1 2.5 0.005 194 3 1 2.84217e-18 
-0.01125 -1.20228e-15 -1.02318e-12 0.0025 1 1 2.5 0.005 195 4 1 -7.10543e-19 
-0.00875 8.60998e-16 5.68434e-14 0.0025 1 1 2.5 0.005 196 3 1 -3.55271e-19 
-0.00625 4.58635e-16 2.84217e-13 0.0025 1 1 2.5 0.005 197 5 1 -1.42109e-18 
-0.00375 3.19338e-16 -3.41061e-13 0.0025 1 1 2.5 0.005 198 4 1 3.55271e-19 
-0.00125 -2.97902e-16 5.68434e-14 0.0025 1 1 2.5 0.005 199 3 1 0 
0.00125 -3.56432e-16 1.13687e-13 0.0025 1 1 2.5 0.005 200 4 1 1.2326e-33 
0.00375 -2.62478e-16 -5.68434e-14 0.0025 1 1 2.5 0.005 201 4 1 -1.42109e-18 
0.00625 -4.54485e-16 1.13687e-13 0.0025 1 1 2.5 0.005 202 5 1 2.46519e-33 
0.00875 -1.28326e-15 -1.7053e-13 0.0025 1 1 2.5 0.005 203 4 1 1.2326e-33 
0.01125 -1.01204e-15 5.68434e-14 0.0025 1 1 2.5 0.005 204 4 1 2.13163e-18 
0.01375 -1.40428e-16 5.11591e-13 0.0025 1 1 2.5 0.005 205 4 1 -4.26326e-18 
0.01625 -4.87039e-16 3.41061e-13 0.0025 1 1 2.5 0.005 206 5 1 -7.10543e-19 
0.01875 -1.00862e-15 2.27374e-13 0.0025 1 1 2.5 0.005 207 4 1 3.55271e-19 
0.02125 5.81053e-16 -6.82121e-13 0.0025 1 1 2.5 0.005 208 3 1 4.61853e-18 
0.02375 1.20164e-15 1.93271e-27 0.0025 1 1 2.5 0.005 209 3 1 1.42109e-18 
0.02625 1.41338e-15 -2.84217e-13 0.0025 1 1 2.5 0.005 210 5 1 -7.10543e-18 
0.02875 -1.97026e-16 -2.84217e-13 0.0025 1 1 2.5 0.005 211 4 1 -1.42109e-18 
0.03125 5.42886e-15 1.7053e-13 0.0025 1 1 2.5 0.005 212 3 1 2.4869e-18 
0.03375 4.11722e-15 1.13687e-13 0.0025 1 1 2.5 0.005 213 4 1 4.9738e-18 
0.03625 3.42093e-15 5.11591e-13 0.0025 1 1 2.5 0.005 214 5 1 -1.7053e-17 
0.03875 2.6896e-15 1.13687e-13 0.0025 1 1 2.5 0.005 215 4 1 1.77636e-17 
0.04125 4.69117e-15 -5.68434e-14 0.0025 1 1 2.5 0.005 216 5 1 -1.3145e-17 
0.04375 3.09161e-15 -1.3074e-12 0.0025 1 1 2.5 0.005 217 4 1 -4.26326e-18 
0.04625 4.82694e-15 1.02318e-12 0.0025 1 1 2.5 0.005 218 3 1 1.49214e-17 
0.04875 1.81094e-15 3.97904e-13 0.0025 1 1 2.5 0.005 219 4 1 -9.9476e-18 
0.05125 1.09741e-15 2.27374e-13 0.0025 1 1 2.5 0.005 220 4 1 -6.39488e-18 
0.05375 2.98891e-15 -2.27374e-13 0.0025 1 1 2.5 0.005 221 3 1 1.35003e-17 
0.05625 7.33929e-16 -3.41061e-13 0.0025 1 1 2.5 0.005 222 5 1 1.38556e-17 
0.05875 5.58703e-15 1.13687e-13 0.0025 1 1 2.5 0.005 223 5 1 -7.03437e-17 
0.06125 4.33993e-15 -2.66635e-26 0.0025 1 1 2.5 0.005 224 4 1 6.39488e-17 
0.06375 3.63775e-15 -5.68434e-14 0.0025 1 1 2.5 0.005 225 4 1 2.4869e-18 
0.06625 8.29672e-16 -2.27374e-13 0.0025 1 1 2.5 0.005 226 5 1 -2.91323e-17 
0.06875 5.07119e-15 -1.13687e-13 0.0025 1 1 2.5 0.005 227 5 1 1.88294e-17 
0.07125 1.39369e-15 -1.13687e-13 0.0025 1 1 2.5 0.005 228 5 1 -1.52767e-17 
0.07375 4.00631e-15 -1.45735e-43 0.0025 1 1 2.5 0.005 229 5 1 8.88178e-18 
0.07625 3.86718e-15 -1.13687e-13 0.0025 1 1 2.5 0.005 230 5 1 -1.3145e-17 
