# Time [s]: 0.223047
# Columns: pos [m], vel [m/s], acc [m/s^2], mass [kg], dens [kg/m^3], pres [Pa], ene [J/kg], sml [m], id, neighbor, alpha, gradh, ...additional?
1.3521 -0.673151 0.00128049 0.0025 0.511013 0.432682 2.15244 0.00978448 0 4 1 -0.000134226 
1.35688 -0.673158 0.0013644 0.0025 0.536866 0.426143 1.94998 0.00931331 1 4 1 0.000179245 
1.36142 -0.673165 0.00143821 0.0025 0.548192 0.430809 1.96844 0.00912089 2 3 1 -1.90587e-05 
1.366 -0.673172 0.00150651 0.0025 0.545924 0.429141 1.96458 0.00915878 3 5 1 3.48621e-06 
1.37057 -0.673181 0.00157326 0.0025 0.546319 0.429293 1.96451 0.00915216 4 4 1 -1.38847e-07 
1.37515 -0.67319 0.00165045 0.0025 0.546326 0.429259 1.96427 0.00915204 5 4 1 1.43488e-07 
1.37973 -0.6732 0.00175617 0.0025 0.546346 0.429254 1.96421 0.00915172 6 4 1 -3.83846e-09 
1.3843 -0.673211 0.00190793 0.0025 0.546355 0.429247 1.96414 0.00915156 7 4 1 7.78016e-09 
1.38888 -0.673223 0.00211327 0.0025 0.546365 0.429241 1.96408 0.0091514 8 4 1 4.17094e-09 
1.39345 -0.673235 0.00236621 0.0025 0.546372 0.429235 1.96402 0.00915127 9 4 1 4.75648e-09 
1.39803 -0.673249 0.00265271 0.0025 0.546378 0.429229 1.96397 0.00915118 10 4 1 -3.05423e-09 
1.4026 -0.673263 0.0029584 0.0025 0.546383 0.429221 1.96392 0.0091511 11 4 1 3.85165e-09 
1.40718 -0.673278 0.00327255 0.0025 0.546386 0.429213 1.96387 0.00915104 12 4 1 1.93606e-09 
1.41176 -0.673294 0.00359226 0.0025 0.546387 0.429204 1.96383 0.00915102 13 3 1 2.61821e-09 
1.41633 -0.673311 0.00393244 0.0025 0.546386 0.429194 1.96379 0.00915104 14 4 1 1.08285e-09 
1.42091 -0.67333 0.00432977 0.0025 0.546384 0.429183 1.96374 0.00915107 15 4 1 -2.78571e-09 
1.42548 -0.67335 0.00481967 0.0025 0.546381 0.429171 1.9637 0.00915113 16 4 1 3.46651e-09 
1.43006 -0.673372 0.00539191 0.0025 0.546375 0.429158 1.96366 0.00915122 17 4 1 -1.45478e-10 
1.43463 -0.673396 0.00597503 0.0025 0.546368 0.429143 1.96362 0.00915134 18 4 1 -2.86265e-09 
1.43921 -0.673422 0.00649678 0.0025 0.546359 0.429127 1.96358 0.00915149 19 4 1 1.1009e-09 
1.44379 -0.673451 0.00698846 0.0025 0.546348 0.429109 1.96353 0.00915167 20 4 1 -4.805e-10 
1.44836 -0.673485 0.00761483 0.0025 0.546335 0.42909 1.96349 0.00915189 21 4 1 -8.76317e-10 
1.45294 -0.673522 0.00854563 0.0025 0.54632 0.429068 1.96345 0.00915214 22 4 1 -1.74798e-09 
1.45751 -0.673562 0.00976496 0.0025 0.546303 0.429044 1.9634 0.00915243 23 4 1 -3.63672e-09 
1.46209 -0.673607 0.0110481 0.0025 0.546282 0.429017 1.96335 0.00915278 24 4 1 -2.20048e-09 
1.46667 -0.673656 0.0121965 0.0025 0.546258 0.428986 1.9633 0.00915319 25 4 1 -2.83751e-09 
1.47124 -0.673713 0.0133087 0.0025 0.54623 0.428952 1.96324 0.00915365 26 4 1 -4.13067e-09 
1.47582 -0.673778 0.0147641 0.0025 0.546199 0.428914 1.96318 0.00915417 27 4 1 -3.53885e-09 
1.4804 -0.673852 0.016871 0.0025 0.546163 0.428872 1.96311 0.00915477 28 4 1 -5.43803e-09 
1.48497 -0.673934 0.019508 0.0025 0.546122 0.428823 1.96304 0.00915546 29 4 1 -8.29433e-09 
1.48955 -0.674025 0.0222218 0.0025 0.546075 0.428768 1.96296 0.00915625 30 4 1 -7.39031e-09 
1.49413 -0.674128 0.0248027 0.0025 0.546021 0.428705 1.96286 0.00915716 31 4 1 -5.9642e-09 
1.49871 -0.674246 0.0275942 0.0025 0.545959 0.428635 1.96276 0.0091582 32 4 1 -9.38206e-09 
-0.496711 -0.67438 0.0310124 0.0025 0.54589 0.428557 1.96265 0.00915936 33 4 1 -1.04923e-08 
-0.492131 -0.674531 0.0350461 0.0025 0.545813 0.428469 1.96253 0.00916065 34 4 1 -8.31636e-09 
-0.48755 -0.674698 0.0393111 0.0025 0.545726 0.428372 1.9624 0.0091621 35 4 1 -1.00053e-08 
-0.482969 -0.674881 0.043164 0.0025 0.545631 0.428266 1.96225 0.0091637 36 4 1 -7.98447e-09 
-0.478387 -0.675076 0.0460901 0.0025 0.54553 0.428152 1.96209 0.0091654 37 4 1 -1.01615e-09 
-0.473804 -0.67528 0.0475209 0.0025 0.545426 0.428036 1.96194 0.00916715 38 4 1 4.81371e-09 
-0.46922 -0.675482 0.0461158 0.0025 0.545325 0.427924 1.96178 0.00916884 39 4 1 1.48895e-08 
-0.464635 -0.675669 0.0409138 0.0025 0.545237 0.427826 1.96165 0.00917033 40 4 1 2.59121e-08 
-0.460049 -0.675817 0.030286 0.0025 0.545169 0.427751 1.96154 0.00917147 41 4 1 3.70921e-08 
-0.455463 -0.675942 0.0274332 0.0025 0.545132 0.427711 1.96148 0.00917209 42 5 1 9.18331e-08 
-0.450877 -0.67589 -0.0415861 0.0025 0.545171 0.427752 1.96153 0.00917143 43 4 1 8.78621e-08 
-0.446292 -0.675676 -0.0272468 0.0025 0.545284 0.427878 1.96169 0.00916954 44 4 1 2.00173e-07 
-0.441708 -0.675359 -0.134987 0.0025 0.545565 0.428206 1.96208 0.00916481 45 4 1 7.5043e-07 
-0.437127 -0.67389 -0.558003 0.0025 0.546431 0.429174 1.96332 0.00915028 46 4 1 1.28751e-06 
-0.432557 -0.670423 -1.02157 0.0025 0.548217 0.431132 1.96588 0.00912048 47 4 1 1.30085e-06 
-0.428007 -0.665378 -1.2761 0.0025 0.550805 0.433977 1.96958 0.00907762 48 4 1 1.31373e-06 
-0.42348 -0.659311 -1.55773 0.0025 0.554059 0.43758 1.97423 0.0090243 49 4 1 1.84392e-06 
-0.418982 -0.651653 -2.02344 0.0025 0.558164 0.442137 1.98006 0.00895793 50 4 1 2.58324e-06 
-0.414522 -0.641907 -2.57624 0.0025 0.563352 0.447903 1.9874 0.00887544 51 4 1 3.13916e-06 
-0.410106 -0.630083 -3.08336 0.0025 0.569644 0.454916 1.99625 0.00877741 52 4 1 3.40021e-06 
-0.405744 -0.616571 -3.47557 0.0025 0.576862 0.462991 2.00633 0.00866759 53 4 1 3.2658e-06 
-0.401438 -0.602148 -3.64825 0.0025 0.584667 0.471768 2.01714 0.00855188 54 4 1 2.96432e-06 
-0.397192 -0.587456 -3.72277 0.0025 0.592731 0.480892 2.02822 0.00843553 55 4 1 2.69047e-06 
-0.393003 -0.572867 -3.72118 0.0025 0.600851 0.49013 2.03928 0.00832154 56 4 1 2.35505e-06 
-0.38887 -0.558642 -3.63818 0.0025 0.608858 0.499292 2.05011 0.0082121 57 4 1 2.08475e-06 
-0.38479 -0.544986 -3.55509 0.0025 0.616664 0.508274 2.06058 0.00810814 58 4 1 1.90063e-06 
-0.380761 -0.531815 -3.46406 0.0025 0.624251 0.517048 2.07067 0.0080096 59 4 1 1.72101e-06 
-0.37678 -0.519237 -3.35834 0.0025 0.631607 0.525598 2.08039 0.00791632 60 4 1 1.66328e-06 
-0.372845 -0.507081 -3.31345 0.0025 0.638784 0.533982 2.08981 0.00782738 61 4 1 1.73243e-06 
-0.368953 -0.495144 -3.32124 0.0025 0.645893 0.542325 2.09908 0.00774122 62 4 1 1.87221e-06 
-0.365103 -0.483247 -3.39612 0.0025 0.653056 0.550768 2.10836 0.00765631 63 4 1 2.06295e-06 
-0.361296 -0.471122 -3.52635 0.0025 0.660389 0.55945 2.11779 0.00757129 64 4 1 2.22346e-06 
-0.357532 -0.458703 -3.67058 0.0025 0.667963 0.568452 2.12747 0.00748545 65 4 1 2.32818e-06 
-0.35381 -0.445957 -3.8145 0.0025 0.675788 0.577796 2.1374 0.00739877 66 4 1 2.36992e-06 
-0.350133 -0.432965 -3.93162 0.0025 0.683839 0.587451 2.14755 0.00731167 67 4 1 2.3114e-06 
-0.346498 -0.419846 -3.98858 0.0025 0.692037 0.597332 2.15781 0.00722504 68 4 1 2.28596e-06 
-0.342907 -0.406727 -4.07046 0.0025 0.700343 0.60739 2.16813 0.00713936 69 4 1 2.2498e-06 
-0.339359 -0.393546 -4.10747 0.0025 0.708728 0.617591 2.17847 0.00705489 70 4 1 2.15176e-06 
-0.335852 -0.380536 -4.12171 0.0025 0.717133 0.627867 2.18877 0.00697221 71 4 1 2.09286e-06 
-0.332386 -0.367657 -4.14089 0.0025 0.725537 0.63819 2.19899 0.00689145 72 4 1 2.03486e-06 
-0.32896 -0.354895 -4.14511 0.0025 0.733927 0.648545 2.20912 0.00681266 73 4 1 1.97987e-06 
-0.325573 -0.342275 -4.15462 0.0025 0.742296 0.658921 2.21916 0.00673585 74 4 1 1.95309e-06 
-0.322224 -0.329761 -4.17612 0.0025 0.750654 0.669329 2.22912 0.00666086 75 4 1 1.88417e-06 
-0.318912 -0.317432 -4.16196 0.0025 0.758984 0.679748 2.23898 0.00658776 76 4 1 1.81881e-06 
-0.315636 -0.305255 -4.16174 0.0025 0.76727 0.690161 2.24872 0.00651661 77 4 1 1.81622e-06 
-0.312395 -0.293208 -4.1885 0.0025 0.775543 0.7006 2.25838 0.0064471 78 4 1 1.77316e-06 
-0.309189 -0.281305 -4.18373 0.0025 0.7838 0.711064 2.26797 0.00637918 79 4 1 1.73333e-06 
-0.306016 -0.269483 -4.2037 0.0025 0.792036 0.721545 2.27747 0.00631284 80 4 1 1.68619e-06 
-0.302876 -0.257826 -4.19279 0.0025 0.800247 0.732038 2.28688 0.00624807 81 4 1 1.63325e-06 
-0.299768 -0.246331 -4.19446 0.0025 0.80842 0.742525 2.29619 0.0061849 82 4 1 1.60526e-06 
-0.296691 -0.234921 -4.19623 0.0025 0.816565 0.753019 2.30542 0.00612321 83 4 1 1.59153e-06 
-0.293644 -0.223697 -4.21611 0.0025 0.824696 0.763537 2.31457 0.00606284 84 4 1 1.56883e-06 
-0.290628 -0.212489 -4.22663 0.0025 0.832819 0.774086 2.32366 0.0060037 85 4 1 1.5259e-06 
-0.287641 -0.201453 -4.2311 0.0025 0.840923 0.784649 2.33268 0.00594585 86 4 1 1.45386e-06 
-0.284682 -0.190523 -4.20211 0.0025 0.84898 0.795193 2.34159 0.00588942 87 4 1 1.44214e-06 
-0.281751 -0.179759 -4.22853 0.0025 0.857004 0.805734 2.35042 0.00583428 88 4 1 1.39291e-06 
-0.278848 -0.169095 -4.18722 0.0025 0.86499 0.816266 2.35915 0.00578041 89 4 1 1.42318e-06 
-0.275971 -0.158561 -4.26748 0.0025 0.872975 0.826835 2.36784 0.00572754 90 4 1 1.39928e-06 
-0.27312 -0.14798 -4.23498 0.0025 0.880967 0.837448 2.37648 0.00567558 91 4 1 1.30719e-06 
-0.270295 -0.137711 -4.2332 0.0025 0.888908 0.848036 2.38503 0.00562488 92 4 1 1.34166e-06 
-0.267495 -0.127332 -4.27352 0.0025 0.89684 0.858644 2.39352 0.00557513 93 4 1 1.14477e-06 
-0.26472 -0.117347 -4.09891 0.0025 0.904656 0.869141 2.40183 0.00552696 94 4 1 1.27829e-06 
-0.261968 -0.107411 -4.30745 0.0025 0.91246 0.87966 2.4101 0.00547969 95 4 1 1.2855e-06 
-0.25924 -0.0973296 -4.1952 0.0025 0.920303 0.890252 2.41837 0.00543299 96 4 1 1.03223e-06 
-0.256535 -0.0877925 -4.11097 0.0025 0.928004 0.900714 2.42643 0.00538791 97 4 1 1.45085e-06 
-0.253852 -0.0778766 -4.51782 0.0025 0.935869 0.911414 2.43465 0.00534263 98 4 1 1.12812e-06 
-0.251192 -0.0679011 -4.11477 0.0025 0.94369 0.922066 2.44277 0.00529835 99 4 1 4.51864e-07 
-0.248553 -0.0592011 -3.70773 0.0025 0.950972 0.932067 2.45027 0.00525778 100 4 1 1.24252e-06 
-0.245934 -0.0502864 -4.35657 0.0025 0.958374 0.942265 2.45788 0.00521717 101 4 1 1.72925e-06 
-0.243336 -0.0402376 -4.62175 0.0025 0.96629 0.953143 2.46601 0.00517443 102 4 1 5.60252e-07 
-0.24076 -0.0309784 -3.76528 0.0025 0.973773 0.963455 2.47364 0.00513467 103 4 1 -2.70897e-07 
-0.238201 -0.0235962 -3.01847 0.0025 0.980249 0.972479 2.48015 0.00510075 104 4 1 1.2715e-06 
-0.235659 -0.0160242 -4.31968 0.0025 0.987074 0.982059 2.48703 0.00506548 105 4 1 3.31284e-06 
-0.233136 -0.00484263 -6.11769 0.0025 0.995693 0.994001 2.49581 0.00502163 106 4 1 -1.2297e-07 
-0.230637 0.00558226 -3.10907 0.0025 1.00332 1.00449 2.50348 0.00498343 107 4 1 -4.14579e-06 
-0.228152 0.00794778 0.5566 0.0025 1.00664 1.00929 2.5066 0.00496699 108 4 1 5.17796e-07 
-0.22567 0.00996929 -3.30631 0.0025 1.00998 1.01422 2.50988 0.00495058 109 4 1 5.80354e-06 
-0.223202 0.0214065 -6.94708 0.0025 1.0179 1.02518 2.51794 0.00491209 110 4 1 -3.84787e-07 
-0.220758 0.0313171 -2.36469 0.0025 1.02506 1.03506 2.52506 0.00487775 111 4 1 -4.93229e-06 
-0.218324 0.03237 0.474181 0.0025 1.02679 1.03759 2.52666 0.00486953 112 3 1 -2.35127e-06 
-0.215888 0.0306173 1.09199 0.0025 1.02547 1.03583 2.52533 0.0048758 113 4 1 -5.44413e-07 
-0.213448 0.028154 1.26238 0.0025 1.02339 1.0329 2.52326 0.00488573 114 4 1 -1.10003e-07 
-0.211003 0.0254604 1.33188 0.0025 1.02106 1.02962 2.52096 0.00489686 115 4 1 -4.92227e-09 
-0.208551 0.0226282 1.39022 0.0025 1.01862 1.02617 2.51854 0.00490862 116 4 1 3.97772e-08 
-0.206094 0.019686 1.43657 0.0025 1.0161 1.02262 2.51604 0.00492079 117 4 1 9.50981e-08 
-0.20363 0.0166893 1.45114 0.0025 1.01356 1.01904 2.51352 0.00493312 118 4 1 1.70106e-07 
-0.201161 0.0137351 1.41312 0.0025 1.01109 1.01557 2.51106 0.00494516 119 4 1 2.48163e-07 
-0.198685 0.0109442 1.31517 0.0025 1.00879 1.01234 2.50877 0.00495646 120 4 1 3.087e-07 
-0.196204 0.00843014 1.16522 0.0025 1.00673 1.00945 2.50672 0.00496656 121 4 1 3.3831e-07 
-0.193719 0.0062742 0.982333 0.0025 1.00499 1.00701 2.50498 0.00497517 122 4 1 3.34764e-07 
-0.191229 0.00451259 0.789269 0.0025 1.00358 1.00502 2.50357 0.00498218 123 4 1 3.04725e-07 
-0.188737 0.00313809 0.605944 0.0025 1.00248 1.00349 2.50247 0.00498763 124 4 1 2.58852e-07 
-0.186242 0.00211125 0.445773 0.0025 1.00166 1.00234 2.50166 0.00499169 125 4 1 2.0745e-07 
-0.183745 0.00137482 0.315061 0.0025 1.00108 1.00152 2.50108 0.00499459 126 4 1 1.58122e-07 
-0.181247 0.000866669 0.214372 0.0025 1.00068 1.00096 2.50068 0.0049966 127 4 1 1.15281e-07 
-0.178748 0.000528751 0.140615 0.0025 1.00042 1.00059 2.50041 0.00499792 128 4 1 8.06934e-08 
-0.176249 0.000311983 0.0889764 0.0025 1.00024 1.00035 2.50024 0.00499878 129 4 1 5.43506e-08 
-0.173749 0.000177811 0.0543102 0.0025 1.00014 1.0002 2.50014 0.0049993 130 4 1 3.52631e-08 
-0.17125 9.77108e-05 0.0319544 0.0025 1.00008 1.00011 2.50008 0.00499962 131 4 1 2.20419e-08 
-0.16875 5.16393e-05 0.0180964 0.0025 1.00004 1.00006 2.50004 0.0049998 132 4 1 1.32654e-08 
-0.16625 2.6156e-05 0.00984197 0.0025 1.00002 1.00003 2.50002 0.0049999 133 4 1 7.67633e-09 
-0.16375 1.26377e-05 0.00512381 0.0025 1.00001 1.00001 2.50001 0.00499995 134 4 1 4.26217e-09 
-0.16125 5.78635e-06 0.00254177 0.0025 1 1.00001 2.5 0.00499998 135 4 1 2.26377e-09 
-0.15875 2.48676e-06 0.00119361 0.0025 1 1 2.5 0.00499999 136 4 1 1.14523e-09 
-0.15625 9.88526e-07 0.000525478 0.0025 1 1 2.5 0.005 137 4 1 5.48449e-10 
-0.15375 3.54698e-07 0.000213564 0.0025 1 1 2.5 0.005 138 4 1 2.46383e-10 
-0.15125 1.09681e-07 7.79832e-05 0.0025 1 1 2.5 0.005 139 4 1 1.0235e-10 
-0.14875 2.61889e-08 2.42972e-05 0.0025 1 1 2.5 0.005 140 4 1 3.82298e-11 
-0.14625 3.0696e-09 5.47658e-06 0.0025 1 1 2.5 0.005 141 4 1 1.2594e-11 
-0.14375 -7.36534e-10 -2.51685e-07 0.0025 1 1 2.5 0.005 142 5 1 3.00462e-12 
-0.14125 6.61621e-10 -6.17549e-07 0.0025 1 1 2.5 0.005 143 4 1 -2.88306e-13 
-0.13875 9.42633e-10 5.12044e-08 0.0025 1 1 2.5 0.005 144 3 1 -3.40795e-13 
-0.13625 6.75907e-10 1.64802e-07 0.0025 1 1 2.5 0.005 145 4 1 -1.49711e-14 
-0.13375 3.78508e-10 1.3599e-07 0.0025 1 1 2.5 0.005 146 4 1 6.14627e-14 
-0.13125 1.7858e-10 8.11248e-08 0.0025 1 1 2.5 0.005 147 4 1 5.79618e-14 
-0.12875 7.184e-11 3.97716e-08 0.0025 1 1 2.5 0.005 148 4 1 3.64444e-14 
-0.12625 2.40003e-11 1.63998e-08 0.0025 1 1 2.5 0.005 149 4 1 1.85072e-14 
-0.12375 6.03532e-12 5.52967e-09 0.0025 1 1 2.5 0.005 150 4 1 7.82094e-15 
-0.12125 7.3581e-13 1.31814e-09 0.0025 1 1 2.5 0.005 151 4 1 2.77964e-15 
-0.11875 -1.91599e-13 -1.6712e-11 0.0025 1 1 2.5 0.005 152 5 1 6.672e-16 
-0.11625 7.50883e-14 -1.33696e-10 0.0025 1 1 2.5 0.005 153 4 1 -4.26326e-17 
-0.11375 1.44009e-13 8.41283e-12 0.0025 1 1 2.5 0.005 154 3 1 -5.93303e-17 
-0.11125 9.86316e-14 2.96723e-11 0.0025 1 1 2.5 0.005 155 4 1 -4.61853e-18 
-0.10875 4.95936e-14 2.37605e-11 0.0025 1 1 2.5 0.005 156 4 1 9.23706e-18 
-0.10625 1.46621e-14 1.01181e-11 0.0025 1 1 2.5 0.005 157 4 1 1.06581e-17 
-0.10375 1.56665e-15 5.79803e-12 0.0025 1 1 2.5 0.005 158 4 1 7.4607e-18 
-0.10125 -9.57684e-16 -7.38964e-13 0.0025 1 1 2.5 0.005 159 5 1 -3.55271e-19 
-0.09875 -5.74939e-16 -5.68434e-14 0.0025 1 1 2.5 0.005 160 5 1 -1.42109e-18 
-0.09625 -6.96893e-16 -4.48416e-44 0.0025 1 1 2.5 0.005 161 5 1 -1.42109e-18 
-0.09375 -8.36196e-16 0 0.0025 1 1 2.5 0.005 162 5 1 -1.42109e-18 
-0.09125 -1.01018e-15 -1.13687e-13 0.0025 1 1 2.5 0.005 163 5 1 -1.42109e-18 
-0.08875 -1.14938e-15 1.13687e-13 0.0025 1 1 2.5 0.005 164 5 1 -1.42109e-18 
-0.08625 -1.42736e-15 -1.13687e-13 0.0025 1 1 2.5 0.005 165 5 1 -1.42109e-18 
-0.08375 -1.77475e-15 1.00893e-43 0.0025 1 1 2.5 0.005 166 5 1 -1.42109e-18 
-0.08125 1.65094e-16 -5.68434e-14 0.0025 1 1 2.5 0.005 167 5 1 -3.19744e-18 
-0.07875 -2.63521e-15 -1.13687e-13 0.0025 1 1 2.5 0.005 168 5 1 5.68434e-18 
-0.07625 -1.97538e-15 1.13687e-13 0.0025 1 1 2.5 0.005 169 5 1 -1.38556e-17 
-0.07375 -1.6156e-15 3.41061e-13 0.0025 1 1 2.5 0.005 170 5 1 8.52651e-18 
-0.07125 9.3149e-16 -5.68434e-14 0.0025 1 1 2.5 0.005 171 5 1 -1.1724e-17 
-0.06875 -2.59231e-17 -5.68434e-14 0.0025 1 1 2.5 0.005 172 5 1 1.03029e-17 
-0.06625 1.52824e-15 2.84217e-13 0.0025 1 1 2.5 0.005 173 5 1 -1.59872e-17 
-0.06375 1.45694e-15 -1.13687e-13 0.0025 1 1 2.5 0.005 174 4 1 -2.13163e-18 
-0.06125 -8.57753e-16 -1.13687e-13 0.0025 1 1 2.5 0.005 175 3 1 3.12639e-17 
-0.05875 2.32227e-16 1.7053e-13 0.0025 1 1 2.5 0.005 176 4 1 -2.62901e-17 
-0.05625 -1.39376e-15 1.13687e-13 0.0025 1 1 2.5 0.005 177 5 1 2.84217e-18 
-0.05375 1.06435e-15 -7.88861e-29 0.0025 1 1 2.5 0.005 178 4 1 3.55271e-19 
-0.05125 -2.31806e-16 1.38051e-27 0.0025 1 1 2.5 0.005 179 5 1 -1.77636e-18 
-0.04875 2.61969e-15 1.13687e-13 0.0025 1 1 2.5 0.005 180 5 1 -3.90799e-18 
-0.04625 2.0516e-15 -1.34525e-43 0.0025 1 1 2.5 0.005 181 5 1 -1.06581e-18 
-0.04375 3.32566e-16 1.13687e-13 0.0025 1 1 2.5 0.005 182 5 1 -3.55271e-19 
-0.04125 3.41795e-16 5.68434e-14 0.0025 1 1 2.5 0.005 183 5 1 -6.39488e-18 
-0.03875 -1.96855e-15 5.68434e-14 0.0025 1 1 2.5 0.005 184 5 1 7.10543e-18 
-0.03625 -1.45196e-15 -3.97904e-13 0.0025 1 1 2.5 0.005 185 5 1 -1.52767e-17 
-0.03375 -5.47308e-15 -3.97904e-13 0.0025 1 1 2.5 0.005 186 4 1 -1.06581e-17 
-0.03125 -4.46301e-16 1.02318e-12 0.0025 1 1 2.5 0.005 187 3 1 5.00933e-17 
-0.02875 -1.37491e-15 -3.97904e-13 0.0025 1 1 2.5 0.005 188 4 1 -3.87246e-17 
-0.02625 -2.08735e-15 1.65661e-27 0.0025 1 1 2.5 0.005 189 5 1 9.23706e-18 
-0.02375 -2.7428e-15 -5.68434e-14 0.0025 1 1 2.5 0.005 190 3 1 -2.13163e-18 
-0.02125 -2.56346e-15 -1.13687e-13 0.0025 1 1 2.5 0.005 191 4 1 3.55271e-18 
-0.01875 -5.89135e-16 1.13687e-12 0.0025 1 1 2.5 0.005 192 5 1 -6.39488e-18 
-0.01625 -2.89496e-15 -9.66338e-13 0.0025 1 1 2.5 0.005 193 4 1 1.77636e-18 
-0.01375 -6.08671e-16 4.54747e-13 0.0025 1 1 2.5 0.005 194 3 1 2.84217e-18 
-0.01125 -2.79375e-16 -3.97904e-13 0.0025 1 1 2.5 0.005 195 5 1 -3.19744e-18 
-0.00875 7.7431e-17 1.13687e-13 0.0025 1 1 2.5 0.005 196 4 1 -1.42109e-18 
-0.00625 7.72102e-16 6.25278e-13 0.0025 1 1 2.5 0.005 197 4 1 7.10543e-19 
-0.00375 2.14851e-16 -4.54747e-13 0.0025 1 1 2.5 0.005 198 3 1 3.55271e-19 
-0.00125 1.54619e-17 5.68434e-14 0.0025 1 1 2.5 0.005 199 3 1 0 
0.00125 -5.13095e-16 -5.68434e-14 0.0025 1 1 2.5 0.005 200 5 1 2.46519e-33 
0.00375 -7.8491e-16 5.68434e-14 0.0025 1 1 2.5 0.005 201 5 1 2.46519e-33 
0.00625 -2.45454e-16 -3.41061e-13 0.0025 1 1 2.5 0.005 202 5 1 -1.42109e-18 
0.00875 -9.52485e-16 1.13687e-13 0.0025 1 1 2.5 0.005 203 3 1 0 
0.01125 -1.16871e-15 4.54747e-13 0.0025 1 1 2.5 0.005 204 4 1 2.13163e-18 
0.01375 -1.42903e-15 -1.7053e-13 0.0025 1 1 2.5 0.005 205 4 1 -4.26326e-18 
0.01625 -1.18351e-15 4.54747e-13 0.0025 1 1 2.5 0.005 206 4 1 -3.55271e-19 
0.01875 -1.61808e-15 2.84217e-13 0.0025 1 1 2.5 0.005 207 4 1 -1.06581e-18 
0.02125 2.47907e-15 -1.19371e-12 0.0025 1 1 2.5 0.005 208 3 1 4.9738e-18 
0.02375 9.57833e-16 5.68434e-13 0.0025 1 1 2.5 0.005 209 3 1 1.42109e-18 
0.02625 2.19695e-15 -3.41061e-13 0.0025 1 1 2.5 0.005 210 5 1 -7.10543e-18 
0.02875 7.43293e-16 -3.97904e-13 0.0025 1 1 2.5 0.005 211 4 1 -3.55271e-19 
0.03125 4.9239e-15 2.27374e-13 0.0025 1 1 2.5 0.005 212 3 1 3.55271e-19 
0.03375 3.64708e-15 2.84217e-13 0.0025 1 1 2.5 0.005 213 4 1 6.03961e-18 
0.03625 1.67962e-15 1.08002e-12 0.0025 1 1 2.5 0.005 214 5 1 -1.52767e-17 
0.03875 3.3862e-15 -2.50111e-12 0.0025 1 1 2.5 0.005 215 3 1 1.77636e-17 
0.04125 5.57959e-15 1.7053e-12 0.0025 1 1 2.5 0.005 216 4 1 -1.35003e-17 
0.04375 4.06593e-15 5.11591e-13 0.0025 1 1 2.5 0.005 217 5 1 -3.55271e-18 
0.04625 2.47657e-15 -2.84217e-13 0.0025 1 1 2.5 0.005 218 3 1 1.49214e-17 
0.04875 1.75874e-15 -1.13687e-13 0.0025 1 1 2.5 0.005 219 4 1 -9.9476e-18 
0.05125 6.62017e-16 3.97904e-13 0.0025 1 1 2.5 0.005 220 4 1 -7.81597e-18 
0.05375 2.95407e-15 2.27374e-13 0.0025 1 1 2.5 0.005 221 3 1 1.45661e-17 
0.05625 1.84837e-15 -6.82121e-13 0.0025 1 1 2.5 0.005 222 5 1 1.35003e-17 
0.05875 5.16912e-15 2.27374e-13 0.0025 1 1 2.5 0.005 223 5 1 -7.0699e-17 
0.06125 4.14837e-15 1.7053e-13 0.0025 1 1 2.5 0.005 224 4 1 6.50147e-17 
0.06375 3.93379e-15 -2.27374e-13 0.0025 1 1 2.5 0.005 225 4 1 2.13163e-18 
0.06625 1.38689e-15 -2.27374e-13 0.0025 1 1 2.5 0.005 226 5 1 -2.91323e-17 
0.06875 5.34979e-15 -1.13687e-13 0.0025 1 1 2.5 0.005 227 5 1 1.88294e-17 
0.07125 1.6723e-15 -1.13687e-13 0.0025 1 1 2.5 0.005 228 5 1 -1.52767e-17 
0.07375 4.14561e-15 -1.34525e-43 0.0025 1 1 2.5 0.005 229 5 1 8.88178e-18 
0.07625 4.00649e-15 -1.13687e-13 0.0025 1 1 2.5 0.005 230 5 1 -1.3145e-17 
0.07875 6.34716e-15 -1.00893e-43 0.0025 1 1 2.5 0.005 231 5 1 8.17124e-18 
