# Time [s]: 0.231627
# Columns: pos [m], vel [m/s], acc [m/s^2], mass [kg], dens [kg/m^3], pres [Pa], ene [J/kg], sml [m], id, neighbor, alpha, gradh, ...additional?
1.34632 -0.673141 0.00105006 0.0025 0.511019 0.432689 2.15245 0.00978437 0 4 1 -0.000134226 
1.3511 -0.673147 0.00109143 0.0025 0.536873 0.42615 1.94999 0.0093132 1 4 1 0.000179246 
1.35564 -0.673154 0.00112865 0.0025 0.548199 0.430817 1.96845 0.00912077 2 3 1 -1.90585e-05 
1.36022 -0.673161 0.00117429 0.0025 0.545932 0.42915 1.96459 0.00915865 3 5 1 3.48609e-06 
1.3648 -0.673169 0.00124299 0.0025 0.546328 0.429302 1.96452 0.00915202 4 4 1 -1.38857e-07 
1.36937 -0.673177 0.00134829 0.0025 0.546336 0.42927 1.96428 0.00915188 5 4 1 1.43425e-07 
1.37395 -0.673186 0.00149577 0.0025 0.546356 0.429265 1.96422 0.00915155 6 4 1 -3.92722e-09 
1.37853 -0.673196 0.00168078 0.0025 0.546366 0.429258 1.96415 0.00915138 7 4 1 7.71622e-09 
1.3831 -0.673206 0.0018916 0.0025 0.546376 0.429254 1.96409 0.00915121 8 4 1 4.17482e-09 
1.38768 -0.673216 0.00211496 0.0025 0.546384 0.429248 1.96404 0.00915107 9 4 1 4.84637e-09 
1.39225 -0.673227 0.00234135 0.0025 0.546391 0.429243 1.96399 0.00915096 10 4 1 -2.88922e-09 
1.39683 -0.673239 0.0025704 0.0025 0.546396 0.429236 1.96394 0.00915087 11 4 1 4.05453e-09 
1.4014 -0.673252 0.00281583 0.0025 0.5464 0.429229 1.96389 0.0091508 12 4 1 2.11736e-09 
1.40598 -0.673265 0.00310191 0.0025 0.546403 0.429221 1.96385 0.00915076 13 4 1 2.72667e-09 
1.41055 -0.673279 0.00344401 0.0025 0.546403 0.429213 1.96381 0.00915075 14 3 1 1.14029e-09 
1.41513 -0.673295 0.00382418 0.0025 0.546402 0.429203 1.96377 0.00915076 15 4 1 -2.64566e-09 
1.41971 -0.673311 0.00419265 0.0025 0.5464 0.429193 1.96373 0.0091508 16 4 1 3.8556e-09 
1.42428 -0.673329 0.00451334 0.0025 0.546397 0.429182 1.96369 0.00915086 17 4 1 5.03005e-10 
1.42886 -0.67335 0.00482142 0.0025 0.546392 0.429169 1.96365 0.00915095 18 4 1 -2.20907e-09 
1.43343 -0.673372 0.00522329 0.0025 0.546385 0.429156 1.96361 0.00915105 19 4 1 1.41619e-09 
1.43801 -0.673397 0.00580861 0.0025 0.546378 0.429141 1.96358 0.00915118 20 4 1 -5.47047e-10 
1.44258 -0.673424 0.00654782 0.0025 0.546368 0.429125 1.96354 0.00915134 21 4 1 -8.74331e-10 
1.44716 -0.673454 0.00730056 0.0025 0.546356 0.429107 1.9635 0.00915154 22 4 1 -1.08399e-09 
1.45173 -0.673486 0.00796364 0.0025 0.546342 0.429087 1.96346 0.00915178 23 4 1 -2.23246e-09 
1.45631 -0.673523 0.00861725 0.0025 0.546326 0.429065 1.96341 0.00915205 24 4 1 -7.21532e-10 
1.46089 -0.673564 0.00949051 0.0025 0.546307 0.429041 1.96337 0.00915236 25 4 1 -2.07575e-09 
1.46546 -0.673611 0.0107435 0.0025 0.546286 0.429014 1.96332 0.00915271 26 4 1 -4.07608e-09 
1.47004 -0.673663 0.0122878 0.0025 0.546262 0.428983 1.96327 0.00915312 27 4 1 -3.2e-09 
1.47462 -0.67372 0.0138788 0.0025 0.546234 0.428949 1.96321 0.00915359 28 4 1 -3.8247e-09 
1.47919 -0.673784 0.0154198 0.0025 0.546201 0.42891 1.96315 0.00915414 29 4 1 -5.6127e-09 
1.48377 -0.673857 0.0171107 0.0025 0.546164 0.428866 1.96308 0.00915476 30 4 1 -4.92767e-09 
1.48835 -0.67394 0.0192392 0.0025 0.546122 0.428817 1.96301 0.00915546 31 4 1 -4.61089e-09 
1.49293 -0.674035 0.0219029 0.0025 0.546075 0.428762 1.96293 0.00915626 32 4 1 -8.75324e-09 
1.4975 -0.674141 0.0249914 0.0025 0.54602 0.4287 1.96284 0.00915717 33 4 1 -9.7706e-09 
-0.497917 -0.67426 0.028342 0.0025 0.545958 0.428629 1.96274 0.00915821 34 4 1 -7.41327e-09 
-0.493338 -0.674393 0.0318672 0.0025 0.545888 0.428549 1.96263 0.0091594 35 4 1 -9.86362e-09 
-0.488758 -0.674543 0.0354917 0.0025 0.545809 0.428461 1.96251 0.00916072 36 4 1 -1.00322e-08 
-0.484177 -0.674709 0.0389873 0.0025 0.545722 0.428363 1.96237 0.00916218 37 4 1 -6.25768e-09 
-0.479596 -0.674892 0.0421126 0.0025 0.545628 0.428258 1.96223 0.00916375 38 4 1 -4.93278e-09 
-0.475014 -0.675088 0.0445418 0.0025 0.545529 0.428149 1.96208 0.00916541 39 4 1 -1.6061e-09 
-0.47043 -0.67529 0.0457461 0.0025 0.54543 0.428037 1.96193 0.00916708 40 4 1 5.50431e-09 
-0.465846 -0.675484 0.0454464 0.0025 0.545334 0.42793 1.96178 0.0091687 41 4 1 1.40649e-08 
-0.461262 -0.675654 0.0403175 0.0025 0.545248 0.427836 1.96165 0.00917014 42 4 1 2.53422e-08 
-0.456676 -0.675785 0.027807 0.0025 0.545184 0.427764 1.96155 0.00917122 43 4 1 3.75344e-08 
-0.452091 -0.675895 0.0252728 0.0025 0.545152 0.427729 1.9615 0.00917176 44 5 1 1.02526e-07 
-0.447505 -0.67585 -0.0512674 0.0025 0.545202 0.427784 1.96156 0.00917091 45 4 1 1.01976e-07 
-0.44292 -0.675595 -0.0409734 0.0025 0.545338 0.427935 1.96175 0.00916863 46 4 1 1.97309e-07 
-0.438336 -0.675218 -0.144544 0.0025 0.545641 0.428286 1.96218 0.00916354 47 4 1 7.17567e-07 
-0.433756 -0.673767 -0.541991 0.0025 0.546502 0.429248 1.96341 0.00914909 48 4 1 1.26538e-06 
-0.429187 -0.670308 -1.01464 0.0025 0.548266 0.431185 1.96594 0.00911965 49 4 1 1.31929e-06 
-0.424636 -0.665289 -1.28434 0.0025 0.55085 0.434024 1.96964 0.00907689 50 4 1 1.29366e-06 
-0.42011 -0.659211 -1.54808 0.0025 0.554088 0.437606 1.97426 0.00902384 51 4 1 1.72659e-06 
-0.415612 -0.651733 -1.96669 0.0025 0.558109 0.442069 1.97997 0.00895882 52 4 1 2.37107e-06 
-0.411151 -0.642321 -2.46549 0.0025 0.563114 0.447632 1.98705 0.0088792 53 4 1 2.90789e-06 
-0.406733 -0.631009 -2.95375 0.0025 0.569148 0.454356 1.99554 0.00878506 54 4 1 3.17184e-06 
-0.402366 -0.618041 -3.32347 0.0025 0.576067 0.462095 2.00521 0.00867954 55 4 1 3.0946e-06 
-0.398053 -0.604133 -3.52246 0.0025 0.583576 0.470534 2.01562 0.00856786 56 4 1 2.82314e-06 
-0.393797 -0.589931 -3.59191 0.0025 0.591365 0.479339 2.02634 0.00845501 57 4 1 2.56604e-06 
-0.389598 -0.575773 -3.60995 0.0025 0.599229 0.488278 2.03707 0.00834405 58 4 1 2.27294e-06 
-0.385453 -0.561912 -3.53824 0.0025 0.607014 0.497175 2.04761 0.00823704 59 4 1 2.01339e-06 
-0.38136 -0.548564 -3.46579 0.0025 0.614623 0.505918 2.05784 0.00813507 60 4 1 1.84301e-06 
-0.377317 -0.535675 -3.38585 0.0025 0.622036 0.514479 2.06772 0.00803813 61 4 1 1.66652e-06 
-0.373322 -0.523295 -3.28615 0.0025 0.629233 0.522832 2.07726 0.00794618 62 4 1 1.58044e-06 
-0.369371 -0.511383 -3.229 0.0025 0.636244 0.531008 2.08648 0.00785861 63 4 1 1.59724e-06 
-0.365463 -0.499747 -3.21018 0.0025 0.64315 0.539098 2.0955 0.00777423 64 4 1 1.68428e-06 
-0.361597 -0.48824 -3.24917 0.0025 0.65005 0.547217 2.10446 0.00769171 65 4 1 1.83991e-06 
-0.357771 -0.47662 -3.34543 0.0025 0.657057 0.555496 2.1135 0.00760969 66 4 1 2.00837e-06 
-0.353987 -0.464767 -3.47805 0.0025 0.664259 0.564041 2.12274 0.00752718 67 4 1 2.12148e-06 
-0.350244 -0.452626 -3.60593 0.0025 0.671692 0.572896 2.1322 0.00744389 68 4 1 2.21073e-06 
-0.346542 -0.440239 -3.74942 0.0025 0.679358 0.582068 2.1419 0.00735989 69 4 1 2.18853e-06 
-0.342883 -0.427625 -3.81328 0.0025 0.687202 0.591494 2.15176 0.00727588 70 4 1 2.11985e-06 
-0.339266 -0.414992 -3.87279 0.0025 0.695149 0.601091 2.16167 0.0071927 71 4 1 2.11893e-06 
-0.335691 -0.402303 -3.93998 0.0025 0.703187 0.610841 2.17164 0.00711048 72 4 1 2.06163e-06 
-0.332156 -0.389657 -3.96244 0.0025 0.711279 0.6207 2.18159 0.00702959 73 4 1 1.96625e-06 
-0.328661 -0.377138 -3.96658 0.0025 0.71937 0.630606 2.19148 0.00695053 74 4 1 1.9276e-06 
-0.325205 -0.364728 -3.99063 0.0025 0.727455 0.64055 2.2013 0.00687328 75 4 1 1.87959e-06 
-0.321787 -0.35248 -3.98969 0.0025 0.735529 0.650524 2.21104 0.00679783 76 4 1 1.8296e-06 
-0.318407 -0.340334 -4.00224 0.0025 0.743582 0.660516 2.22069 0.00672421 77 4 1 1.81602e-06 
-0.315063 -0.328309 -4.026 0.0025 0.75163 0.670545 2.23027 0.00665221 78 4 1 1.73884e-06 
-0.311754 -0.316442 -4.0021 0.0025 0.759648 0.680578 2.23975 0.006582 79 4 1 1.69469e-06 
-0.308481 -0.304716 -4.01911 0.0025 0.76763 0.690611 2.24913 0.00651356 80 4 1 1.68332e-06 
-0.305241 -0.293126 -4.02507 0.0025 0.775598 0.700666 2.25844 0.00644664 81 4 1 1.63705e-06 
-0.302034 -0.281662 -4.02835 0.0025 0.783544 0.710736 2.26767 0.00638127 82 4 1 1.62843e-06 
-0.298859 -0.270269 -4.05698 0.0025 0.791483 0.720836 2.27683 0.00631726 83 4 1 1.56085e-06 
-0.295716 -0.259041 -4.02772 0.0025 0.799393 0.730941 2.2859 0.00625475 84 4 1 1.53116e-06 
-0.292604 -0.247915 -4.05637 0.0025 0.807273 0.741047 2.29488 0.00619369 85 4 1 1.49532e-06 
-0.289523 -0.236948 -4.03065 0.0025 0.815126 0.751158 2.30379 0.00613402 86 4 1 1.46848e-06 
-0.28647 -0.226067 -4.05841 0.0025 0.822954 0.761277 2.31261 0.00607568 87 4 1 1.46664e-06 
-0.283447 -0.215315 -4.06437 0.0025 0.830778 0.771428 2.32138 0.00601846 88 4 1 1.43958e-06 
-0.280452 -0.204597 -4.08627 0.0025 0.838595 0.781606 2.33009 0.00596236 89 4 1 1.3599e-06 
-0.277484 -0.194066 -4.04171 0.0025 0.846369 0.79177 2.3387 0.00590759 90 4 1 1.36971e-06 
-0.274544 -0.183611 -4.09966 0.0025 0.854122 0.80194 2.34725 0.00585397 91 4 1 1.2847e-06 
-0.27163 -0.173289 -4.00797 0.0025 0.861826 0.812085 2.35569 0.00580164 92 4 1 1.30388e-06 
-0.268742 -0.163163 -4.1024 0.0025 0.869506 0.822237 2.36406 0.00575039 93 4 1 1.34682e-06 
-0.26588 -0.152886 -4.09505 0.0025 0.877219 0.832461 2.37243 0.00569983 94 4 1 1.19412e-06 
-0.263042 -0.142957 -4.03673 0.0025 0.884868 0.842644 2.38068 0.00565056 95 4 1 1.30817e-06 
-0.260229 -0.132952 -4.17789 0.0025 0.89254 0.852888 2.38892 0.00560199 96 4 1 1.16438e-06 
-0.25744 -0.12303 -4.00542 0.0025 0.900163 0.863096 2.39706 0.00555455 97 4 1 1.01577e-06 
-0.254674 -0.1136 -3.9905 0.0025 0.907638 0.873159 2.40499 0.0055088 98 4 1 1.32475e-06 
-0.251931 -0.10385 -4.22021 0.0025 0.915218 0.883379 2.41301 0.00546318 99 4 1 1.07249e-06 
-0.249211 -0.0942446 -3.94401 0.0025 0.922749 0.893562 2.42093 0.00541859 100 4 1 9.17793e-07 
-0.246512 -0.0851814 -3.97979 0.0025 0.930111 0.90358 2.42863 0.0053757 101 4 1 1.43949e-06 
-0.243835 -0.0755659 -4.37929 0.0025 0.937714 0.913929 2.43657 0.00533212 102 4 1 1.05681e-06 
-0.24118 -0.0659426 -3.9966 0.0025 0.945283 0.924246 2.44442 0.00528942 103 4 1 4.1031e-07 
-0.238546 -0.0575143 -3.60081 0.0025 0.952325 0.933918 2.45167 0.00525031 104 4 1 9.74896e-07 
-0.23593 -0.0490521 -4.00589 0.0025 0.959349 0.9436 2.45888 0.00521187 105 4 1 1.54791e-06 
-0.233334 -0.0397362 -4.39899 0.0025 0.966838 0.953917 2.46656 0.0051715 106 4 1 1.08321e-06 
-0.230758 -0.0303536 -4.15827 0.0025 0.97435 0.964265 2.47423 0.00513163 107 4 1 -2.09644e-07 
-0.228202 -0.0224007 -2.95456 0.0025 0.980914 0.973363 2.48085 0.00509729 108 4 1 2.54785e-09 
-0.225661 -0.0162118 -3.11078 0.0025 0.986845 0.981714 2.48678 0.00506665 109 4 1 2.88145e-06 
-0.223135 -0.00700444 -5.69704 0.0025 0.99442 0.992293 2.49447 0.00502806 110 4 1 2.1085e-06 
-0.220633 0.004723 -4.83283 0.0025 1.00286 1.0039 2.50303 0.00498575 111 4 1 -3.43398e-06 
-0.21815 0.0101668 -0.411565 0.0025 1.00765 1.01059 2.50769 0.00496205 112 4 1 -2.42827e-06 
-0.215671 0.0100632 -0.397761 0.0025 1.00969 1.01375 2.50957 0.00495199 113 4 1 4.48144e-06 
-0.213198 0.0172837 -6.13931 0.0025 1.01534 1.0217 2.51532 0.00492445 114 4 1 2.69739e-06 
-0.210746 0.0288242 -4.16758 0.0025 1.02307 1.03229 2.52309 0.00488726 115 4 1 -4.15834e-06 
-0.20831 0.0321244 0.0371011 0.0025 1.0264 1.03699 2.5263 0.00487141 116 3 1 -3.33582e-06 
-0.205875 0.0308792 0.968371 0.0025 1.02566 1.03607 2.52552 0.00487493 117 4 1 -8.89196e-07 
-0.203435 0.028531 1.24263 0.0025 1.0237 1.03333 2.52357 0.00488426 118 4 1 -2.06049e-07 
-0.200991 0.0258408 1.34138 0.0025 1.02139 1.03008 2.52129 0.0048953 119 4 1 -8.97092e-09 
-0.19854 0.0230074 1.38933 0.0025 1.01895 1.02664 2.51887 0.004907 120 4 1 5.81195e-08 
-0.196083 0.0200952 1.41802 0.0025 1.01646 1.02313 2.5164 0.00491903 121 4 1 1.08606e-07 
-0.193621 0.0171573 1.41968 0.0025 1.01397 1.01963 2.51393 0.0049311 122 4 1 1.66673e-07 
-0.191152 0.0142695 1.38147 0.0025 1.01155 1.01622 2.51152 0.0049429 123 4 1 2.28654e-07 
-0.188678 0.0115274 1.29528 0.0025 1.00928 1.01303 2.50926 0.00495403 124 4 1 2.80883e-07 
-0.186198 0.00902748 1.16393 0.0025 1.00723 1.01015 2.50722 0.00496411 125 4 1 3.11453e-07 
-0.183714 0.00684621 1.00003 0.0025 1.00546 1.00767 2.50545 0.00497285 126 4 1 3.15427e-07 
-0.181225 0.0050262 0.821466 0.0025 1.00399 1.00561 2.50398 0.00498012 127 4 1 2.95345e-07 
-0.178734 0.00357276 0.646008 0.0025 1.00283 1.00398 2.50282 0.00498589 128 4 1 2.58497e-07 
-0.17624 0.00245992 0.487353 0.0025 1.00194 1.00273 2.50194 0.0049903 129 4 1 2.13461e-07 
-0.173744 0.00164124 0.353478 0.0025 1.00129 1.00182 2.50129 0.00499354 130 4 1 1.67555e-07 
-0.171246 0.00106139 0.246974 0.0025 1.00084 1.00118 2.50083 0.00499583 131 4 1 1.25728e-07 
-0.168748 0.000665311 0.166487 0.0025 1.00052 1.00074 2.50052 0.00499739 132 4 1 9.05556e-08 
-0.166249 0.000404068 0.108387 0.0025 1.00032 1.00045 2.50032 0.00499841 133 4 1 6.27744e-08 
-0.163749 0.000237585 0.068171 0.0025 1.00019 1.00026 2.50019 0.00499907 134 4 1 4.19498e-08 
-0.16125 0.000135073 0.0414147 0.0025 1.00011 1.00015 2.50011 0.00499947 135 4 1 2.70433e-08 
-0.15875 7.41165e-05 0.0242814 0.0025 1.00006 1.00008 2.50006 0.00499971 136 4 1 1.68171e-08 
-0.15625 3.91541e-05 0.0137185 0.0025 1.00003 1.00004 2.50003 0.00499985 137 4 1 1.00808e-08 
-0.15375 1.98474e-05 0.00745224 0.0025 1.00002 1.00002 2.50002 0.00499992 138 4 1 5.81712e-09 
-0.15125 9.61008e-06 0.0038801 0.0025 1.00001 1.00001 2.50001 0.00499996 139 4 1 3.22469e-09 
-0.14875 4.41689e-06 0.0019278 0.0025 1 1 2.5 0.00499998 140 4 1 1.71222e-09 
-0.14625 1.90962e-06 0.000908315 0.0025 1 1 2.5 0.00499999 141 4 1 8.67238e-10 
-0.14375 7.66047e-07 0.00040214 0.0025 1 1 2.5 0.005 142 4 1 4.1656e-10 
-0.14125 2.78771e-07 0.000164917 0.0025 1 1 2.5 0.005 143 4 1 1.88123e-10 
-0.13875 8.82643e-08 6.11113e-05 0.0025 1 1 2.5 0.005 144 4 1 7.88175e-11 
-0.13625 2.21111e-08 1.95237e-05 0.0025 1 1 2.5 0.005 145 4 1 2.98684e-11 
-0.13375 3.11825e-09 4.69986e-06 0.0025 1 1 2.5 0.005 146 4 1 1.00097e-11 
-0.13125 -4.80308e-10 1.47388e-07 0.0025 1 1 2.5 0.005 147 5 1 2.58716e-12 
-0.12875 3.50833e-10 -5.2001e-07 0.0025 1 1 2.5 0.005 148 4 1 -3.39725e-14 
-0.12625 6.5049e-10 1.08182e-08 0.0025 1 1 2.5 0.005 149 3 1 -2.81168e-13 
-0.12375 4.92766e-10 1.06968e-07 0.0025 1 1 2.5 0.005 150 4 1 -2.72056e-14 
-0.12125 2.85652e-10 9.76521e-08 0.0025 1 1 2.5 0.005 151 4 1 3.87871e-14 
-0.11875 1.39046e-10 6.03482e-08 0.0025 1 1 2.5 0.005 152 4 1 4.07645e-14 
-0.11625 5.80033e-11 3.06902e-08 0.0025 1 1 2.5 0.005 153 4 1 2.69324e-14 
-0.11375 2.03541e-11 1.31508e-08 0.0025 1 1 2.5 0.005 154 4 1 1.41767e-14 
-0.11125 5.59556e-12 4.67196e-09 0.0025 1 1 2.5 0.005 155 4 1 6.24638e-15 
-0.10875 9.21755e-13 1.24925e-09 0.0025 1 1 2.5 0.005 156 4 1 2.29896e-15 
-0.10625 -9.26387e-14 1.34037e-10 0.0025 1 1 2.5 0.005 157 4 1 6.45173e-16 
-0.10375 8.2935e-15 -1.18291e-10 0.0025 1 1 2.5 0.005 158 5 1 4.93827e-17 
-0.10125 9.20464e-14 -4.09273e-12 0.0025 1 1 2.5 0.005 159 3 1 -6.14619e-17 
-0.09875 6.89685e-14 1.46088e-11 0.0025 1 1 2.5 0.005 160 4 1 -5.68434e-18 
-0.09625 3.63751e-14 1.7053e-11 0.0025 1 1 2.5 0.005 161 4 1 5.32907e-18 
-0.09375 1.39541e-14 1.15392e-11 0.0025 1 1 2.5 0.005 162 4 1 7.4607e-18 
-0.09125 -3.65578e-16 1.87583e-12 0.0025 1 1 2.5 0.005 163 5 1 5.32907e-18 
-0.08875 -1.79388e-15 5.68434e-14 0.0025 1 1 2.5 0.005 164 5 1 -3.55271e-19 
-0.08625 -1.93256e-15 -1.7053e-13 0.0025 1 1 2.5 0.005 165 5 1 -1.42109e-18 
-0.08375 -2.36697e-15 -1.13687e-13 0.0025 1 1 2.5 0.005 166 5 1 -1.42109e-18 
-0.08125 -8.97433e-16 -1.13687e-13 0.0025 1 1 2.5 0.005 167 5 1 -3.90799e-18 
-0.07875 -3.57579e-15 -1.13687e-13 0.0025 1 1 2.5 0.005 168 5 1 6.75016e-18 
-0.07625 -5.12268e-16 1.13687e-13 0.0025 1 1 2.5 0.005 169 5 1 -1.35003e-17 
-0.07375 -4.13727e-16 1.7053e-13 0.0025 1 1 2.5 0.005 170 5 1 8.88178e-18 
-0.07125 1.0186e-15 -1.12104e-44 0.0025 1 1 2.5 0.005 171 5 1 -1.20792e-17 
-0.06875 -4.33381e-17 3.9443e-29 0.0025 1 1 2.5 0.005 172 5 1 1.10134e-17 
-0.06625 2.0333e-15 -7.10961e-27 0.0025 1 1 2.5 0.005 173 5 1 -1.59872e-17 
-0.06375 1.21316e-15 -1.66252e-26 0.0025 1 1 2.5 0.005 174 4 1 -2.13163e-18 
-0.06125 -1.50219e-15 -5.68434e-14 0.0025 1 1 2.5 0.005 175 3 1 3.12639e-17 
-0.05875 1.45153e-15 5.68434e-14 0.0025 1 1 2.5 0.005 176 4 1 -2.62901e-17 
-0.05625 -1.74497e-16 2.27374e-13 0.0025 1 1 2.5 0.005 177 5 1 2.84217e-18 
-0.05375 1.09919e-15 -7.88861e-29 0.0025 1 1 2.5 0.005 178 4 1 3.55271e-19 
-0.05125 -2.14383e-16 5.68434e-14 0.0025 1 1 2.5 0.005 179 5 1 -1.06581e-18 
-0.04875 2.89837e-15 -2.01787e-43 0.0025 1 1 2.5 0.005 180 5 1 -3.90799e-18 
-0.04625 1.98181e-15 -3.41061e-13 0.0025 1 1 2.5 0.005 181 5 1 1.06581e-18 
-0.04375 1.89171e-17 -3.41061e-13 0.0025 1 1 2.5 0.005 182 5 1 -3.55271e-18 
-0.04125 -2.04485e-15 -1.13687e-13 0.0025 1 1 2.5 0.005 183 5 1 1.06581e-18 
-0.03875 -2.15996e-15 4.54747e-13 0.0025 1 1 2.5 0.005 184 5 1 -1.1724e-17 
-0.03625 -3.52353e-15 9.09495e-13 0.0025 1 1 2.5 0.005 185 4 1 -3.55271e-19 
-0.03375 1.14389e-15 -1.08002e-12 0.0025 1 1 2.5 0.005 186 4 1 -5.68434e-18 
-0.03125 -8.46078e-16 -5.68434e-14 0.0025 1 1 2.5 0.005 187 3 1 4.05009e-17 
-0.02875 -2.68106e-15 -1.13687e-13 0.0025 1 1 2.5 0.005 188 4 1 -3.37508e-17 
-0.02625 -1.93058e-15 7.38964e-13 0.0025 1 1 2.5 0.005 189 5 1 7.81597e-18 
-0.02375 -1.24452e-15 3.97904e-13 0.0025 1 1 2.5 0.005 190 3 1 -3.55271e-19 
-0.02125 -2.16278e-15 1.7053e-13 0.0025 1 1 2.5 0.005 191 4 1 4.9738e-18 
-0.01875 -1.53019e-15 -4.54747e-13 0.0025 1 1 2.5 0.005 192 5 1 -7.10543e-18 
-0.01625 -2.40769e-15 -2.84217e-13 0.0025 1 1 2.5 0.005 193 4 1 1.42109e-18 
-0.01375 1.93105e-16 2.27374e-13 0.0025 1 1 2.5 0.005 194 3 1 2.84217e-18 
-0.01125 2.78496e-16 -3.97904e-13 0.0025 1 1 2.5 0.005 195 4 1 -1.77636e-18 
-0.00875 -1.24684e-15 9.09495e-13 0.0025 1 1 2.5 0.005 196 5 1 7.54965e-33 
-0.00625 -7.08594e-16 -7.95808e-13 0.0025 1 1 2.5 0.005 197 4 1 7.10543e-19 
-0.00375 -1.16349e-17 1.7053e-13 0.0025 1 1 2.5 0.005 198 3 1 7.10543e-19 
-0.00125 -2.80473e-16 1.13687e-13 0.0025 1 1 2.5 0.005 199 4 1 -1.06581e-18 
0.00125 -1.82217e-16 -8.87469e-29 0.0025 1 1 2.5 0.005 200 5 1 -1.42109e-18 
0.00375 1.61997e-17 -5.68434e-14 0.0025 1 1 2.5 0.005 201 5 1 2.46519e-33 
0.00625 -2.27906e-16 5.68434e-14 0.0025 1 1 2.5 0.005 202 5 1 7.54965e-33 
0.00875 -1.12663e-15 -1.15371e-27 0.0025 1 1 2.5 0.005 203 3 1 0 
0.01125 -3.63769e-17 2.84217e-13 0.0025 1 1 2.5 0.005 204 4 1 3.19744e-18 
0.01375 1.23575e-15 1.15371e-27 0.0025 1 1 2.5 0.005 205 5 1 -4.9738e-18 
0.01625 9.58844e-16 1.7053e-13 0.0025 1 1 2.5 0.005 206 5 1 -3.55271e-19 
0.01875 -3.64089e-16 -5.68434e-14 0.0025 1 1 2.5 0.005 207 4 1 -3.55271e-19 
0.02125 -1.77068e-15 -5.68434e-14 0.0025 1 1 2.5 0.005 208 3 1 3.19744e-18 
0.02375 4.00289e-16 -2.27374e-13 0.0025 1 1 2.5 0.005 209 3 1 3.19744e-18 
0.02625 2.33671e-15 4.54747e-13 0.0025 1 1 2.5 0.005 210 5 1 -1.27898e-17 
0.02875 1.57989e-15 5.11591e-13 0.0025 1 1 2.5 0.005 211 4 1 3.55271e-18 
0.03125 3.35576e-15 -7.95808e-13 0.0025 1 1 2.5 0.005 212 3 1 7.4607e-18 
0.03375 3.14171e-15 1.7053e-12 0.0025 1 1 2.5 0.005 213 4 1 3.55271e-19 
0.03625 4.58798e-15 -3.52429e-12 0.0025 1 1 2.5 0.005 214 5 1 -1.45661e-17 
0.03875 4.67561e-15 2.27374e-12 0.0025 1 1 2.5 0.005 215 3 1 1.74083e-17 
0.04125 3.24533e-15 -3.41061e-13 0.0025 1 1 2.5 0.005 216 4 1 -1.13687e-17 
0.04375 3.28322e-15 -1.13687e-13 0.0025 1 1 2.5 0.005 217 4 1 -7.81597e-18 
0.04625 9.42257e-16 5.11591e-13 0.0025 1 1 2.5 0.005 218 3 1 1.63425e-17 
0.04875 2.92549e-15 5.68434e-14 0.0025 1 1 2.5 0.005 219 5 1 -8.52651e-18 
0.05125 4.19849e-15 -1.81899e-12 0.0025 1 1 2.5 0.005 220 4 1 -8.88178e-18 
0.05375 5.32327e-15 1.93268e-12 0.0025 1 1 2.5 0.005 221 3 1 1.66978e-17 
0.05625 4.42712e-15 4.22829e-26 0.0025 1 1 2.5 0.005 222 5 1 1.13687e-17 
0.05875 9.18273e-16 -1.13687e-13 0.0025 1 1 2.5 0.005 223 5 1 -7.14095e-17 
0.06125 -2.48902e-15 -1.47793e-12 0.0025 1 1 2.5 0.005 224 3 1 7.21201e-17 
0.06375 7.06964e-15 3.41061e-13 0.0025 1 1 2.5 0.005 225 3 1 -5.32907e-18 
0.06625 2.11883e-15 5.68434e-13 0.0025 1 1 2.5 0.005 226 5 1 -2.77112e-17 
0.06875 4.13047e-15 -1.13687e-13 0.0025 1 1 2.5 0.005 227 5 1 1.91847e-17 
0.07125 6.09769e-16 -1.7053e-13 0.0025 1 1 2.5 0.005 228 5 1 -1.52767e-17 
0.07375 3.58823e-15 -1.13687e-13 0.0025 1 1 2.5 0.005 229 5 1 8.88178e-18 
0.07625 3.58843e-15 4.48416e-44 0.0025 1 1 2.5 0.005 230 5 1 -1.35003e-17 
