# Time [s]: 0.227949
# Columns: pos [m], vel [m/s], acc [m/s^2], mass [kg], dens [kg/m^3], pres [Pa], ene [J/kg], sml [m], id, neighbor, alpha, gradh, ...additional?
1.3488 -0.673145 0.00115293 0.0025 0.511017 0.432686 2.15244 0.00978442 0 4 1 -0.000134226 
1.35358 -0.673152 0.00121136 0.0025 0.53687 0.426147 1.94999 0.00931324 1 4 1 0.000179246 
1.35812 -0.673158 0.00126054 0.0025 0.548196 0.430814 1.96844 0.00912082 2 3 1 -1.90586e-05 
1.3627 -0.673166 0.00130906 0.0025 0.545929 0.429146 1.96458 0.0091587 3 5 1 3.48616e-06 
1.36727 -0.673174 0.00136874 0.0025 0.546324 0.429298 1.96451 0.00915208 4 4 1 -1.38833e-07 
1.37185 -0.673182 0.00145621 0.0025 0.546332 0.429265 1.96428 0.00915195 5 4 1 1.43465e-07 
1.37643 -0.673192 0.00158555 0.0025 0.546352 0.42926 1.96421 0.00915162 6 4 1 -3.88874e-09 
1.381 -0.673202 0.00176143 0.0025 0.546361 0.429254 1.96415 0.00915145 7 4 1 7.73215e-09 
1.38558 -0.673213 0.00197725 0.0025 0.546371 0.429248 1.96409 0.00915129 8 4 1 4.15628e-09 
1.39015 -0.673224 0.00221976 0.0025 0.546379 0.429243 1.96403 0.00915115 9 4 1 4.79292e-09 
1.39473 -0.673236 0.00247533 0.0025 0.546385 0.429237 1.96398 0.00915105 10 4 1 -2.96631e-09 
1.3993 -0.673249 0.00273466 0.0025 0.546391 0.42923 1.96393 0.00915096 11 4 1 3.97696e-09 
1.40388 -0.673262 0.00299838 0.0025 0.546394 0.429223 1.96389 0.0091509 12 4 1 2.06726e-09 
1.40846 -0.673277 0.00328359 0.0025 0.546396 0.429214 1.96384 0.00915087 13 4 1 2.71122e-09 
1.41303 -0.673292 0.00362036 0.0025 0.546396 0.429205 1.9638 0.00915087 14 3 1 1.11792e-09 
1.41761 -0.673309 0.00402748 0.0025 0.546395 0.429195 1.96376 0.00915089 15 4 1 -2.75219e-09 
1.42218 -0.673327 0.00448188 0.0025 0.546393 0.429184 1.96372 0.00915093 16 4 1 3.62492e-09 
1.42676 -0.673347 0.00492189 0.0025 0.546388 0.429172 1.96368 0.00915101 17 4 1 2.20783e-10 
1.43133 -0.673368 0.00530633 0.0025 0.546382 0.429159 1.96364 0.00915111 18 4 1 -2.38565e-09 
1.43591 -0.673392 0.00568574 0.0025 0.546375 0.429144 1.9636 0.00915123 19 4 1 1.4316e-09 
1.44048 -0.673419 0.00619601 0.0025 0.546366 0.429128 1.96356 0.00915138 20 4 1 -4.65525e-10 
1.44506 -0.673449 0.00694162 0.0025 0.546355 0.429111 1.96352 0.00915156 21 4 1 -9.97876e-10 
1.44964 -0.673481 0.00787098 0.0025 0.546342 0.429092 1.96348 0.00915178 22 4 1 -1.55393e-09 
1.45421 -0.673517 0.00880321 0.0025 0.546326 0.42907 1.96343 0.00915204 23 4 1 -2.85676e-09 
1.45879 -0.673556 0.00962494 0.0025 0.546308 0.429045 1.96339 0.00915235 24 4 1 -1.12201e-09 
1.46336 -0.673601 0.0104618 0.0025 0.546287 0.429018 1.96334 0.0091527 25 4 1 -2.09985e-09 
1.46794 -0.673652 0.0116082 0.0025 0.546264 0.428989 1.96329 0.00915309 26 4 1 -4.03646e-09 
1.47252 -0.67371 0.0132407 0.0025 0.546237 0.428956 1.96323 0.00915354 27 4 1 -3.60017e-09 
1.47709 -0.673773 0.0152109 0.0025 0.546206 0.428918 1.96317 0.00915406 28 4 1 -4.7852e-09 
1.48167 -0.673844 0.0172035 0.0025 0.546169 0.428875 1.96311 0.00915467 29 4 1 -6.68493e-09 
1.48625 -0.673923 0.0191414 0.0025 0.546128 0.428827 1.96303 0.00915536 30 4 1 -5.61507e-09 
1.49083 -0.674015 0.021319 0.0025 0.546081 0.428772 1.96295 0.00915614 31 4 1 -4.93079e-09 
1.4954 -0.674119 0.0240621 0.0025 0.546028 0.428711 1.96286 0.00915704 32 4 1 -9.09836e-09 
1.49998 -0.674237 0.0274097 0.0025 0.545968 0.428643 1.96277 0.00915804 33 4 1 -1.03888e-08 
-0.495438 -0.674369 0.0311558 0.0025 0.5459 0.428565 1.96266 0.00915919 34 4 1 -8.13774e-09 
-0.490858 -0.674516 0.0350286 0.0025 0.545823 0.428478 1.96254 0.00916049 35 4 1 -1.0251e-08 
-0.486277 -0.67468 0.0388493 0.0025 0.545736 0.428381 1.9624 0.00916193 36 4 1 -9.73389e-09 
-0.481696 -0.674859 0.0423508 0.0025 0.545643 0.428276 1.96226 0.00916351 37 4 1 -4.79536e-09 
-0.477114 -0.675052 0.0449045 0.0025 0.545543 0.428165 1.96211 0.00916518 38 4 1 -1.52912e-09 
-0.472531 -0.675255 0.0460024 0.0025 0.545442 0.428052 1.96195 0.00916689 39 4 1 4.05343e-09 
-0.467947 -0.675457 0.0450036 0.0025 0.545344 0.427943 1.9618 0.00916853 40 4 1 1.47673e-08 
-0.463362 -0.675643 0.0404455 0.0025 0.545257 0.427846 1.96167 0.00916999 41 4 1 2.38084e-08 
-0.458777 -0.67579 0.0322908 0.0025 0.545189 0.42777 1.96156 0.00917114 42 4 1 2.56447e-08 
-0.454191 -0.675895 0.0342905 0.0025 0.545143 0.427721 1.96149 0.0091719 43 5 1 8.92934e-08 
-0.449605 -0.675881 -0.0394048 0.0025 0.545171 0.427751 1.96152 0.00917143 44 4 1 1.10728e-07 
-0.445019 -0.675652 -0.0436225 0.0025 0.54529 0.427882 1.96169 0.00916944 45 4 1 1.63523e-07 
-0.440435 -0.67538 -0.108507 0.0025 0.545548 0.428181 1.96205 0.0091651 46 4 1 6.25909e-07 
-0.435854 -0.674147 -0.473609 0.0025 0.546299 0.429026 1.96312 0.00915249 47 4 1 1.22436e-06 
-0.431283 -0.670972 -0.963106 0.0025 0.547937 0.430825 1.96547 0.00912513 48 4 1 1.33025e-06 
-0.426729 -0.666103 -1.2489 0.0025 0.55042 0.433552 1.96903 0.00908397 49 4 1 1.27707e-06 
-0.422199 -0.66019 -1.50441 0.0025 0.553568 0.437032 1.97352 0.00903232 50 4 1 1.68234e-06 
-0.417697 -0.652886 -1.91758 0.0025 0.557492 0.441387 1.9791 0.00896874 51 4 1 2.37217e-06 
-0.41323 -0.643638 -2.44197 0.0025 0.562422 0.446865 1.98608 0.00889012 52 4 1 2.93892e-06 
-0.408806 -0.632387 -2.93811 0.0025 0.56842 0.453546 1.99452 0.00879632 53 4 1 3.24893e-06 
-0.404433 -0.619383 -3.34707 0.0025 0.575351 0.461295 2.00422 0.00869034 54 4 1 3.20171e-06 
-0.400116 -0.605351 -3.55763 0.0025 0.582923 0.4698 2.01472 0.00857746 55 4 1 2.91889e-06 
-0.395855 -0.590946 -3.63898 0.0025 0.590802 0.478703 2.02557 0.00846307 56 4 1 2.65642e-06 
-0.391652 -0.57658 -3.66027 0.0025 0.598774 0.48776 2.03646 0.0083504 57 4 1 2.35869e-06 
-0.387505 -0.562498 -3.59705 0.0025 0.606676 0.496789 2.04716 0.00824163 58 4 1 2.07578e-06 
-0.38341 -0.548955 -3.513 0.0025 0.614399 0.505662 2.05754 0.00813804 59 4 1 1.88791e-06 
-0.379366 -0.535868 -3.43238 0.0025 0.621915 0.51434 2.06757 0.00803968 60 4 1 1.71314e-06 
-0.37537 -0.523323 -3.33072 0.0025 0.629211 0.522807 2.07723 0.00794645 61 4 1 1.61565e-06 
-0.37142 -0.511263 -3.2675 0.0025 0.636313 0.53109 2.08657 0.00785776 62 4 1 1.64009e-06 
-0.367512 -0.499474 -3.25344 0.0025 0.643309 0.539286 2.09571 0.00777232 63 4 1 1.73887e-06 
-0.363647 -0.487811 -3.29587 0.0025 0.650305 0.547519 2.1048 0.0076887 64 4 1 1.90804e-06 
-0.359823 -0.47602 -3.40425 0.0025 0.657421 0.555929 2.11397 0.00760548 65 4 1 2.07625e-06 
-0.356041 -0.463978 -3.53613 0.0025 0.664744 0.564618 2.12336 0.00752169 66 4 1 2.19047e-06 
-0.352301 -0.45162 -3.67227 0.0025 0.672303 0.573627 2.13298 0.00743713 67 4 1 2.2697e-06 
-0.348604 -0.438999 -3.80634 0.0025 0.680096 0.582955 2.14284 0.0073519 68 4 1 2.25531e-06 
-0.344949 -0.42617 -3.88369 0.0025 0.688071 0.592543 2.15285 0.0072667 69 4 1 2.20655e-06 
-0.341337 -0.413367 -3.95084 0.0025 0.696163 0.60232 2.16294 0.00718222 70 4 1 2.18492e-06 
-0.337767 -0.400483 -4.01122 0.0025 0.704347 0.612252 2.17307 0.00709878 71 4 1 2.10159e-06 
-0.334238 -0.387651 -4.0221 0.0025 0.712568 0.622278 2.18318 0.00701687 72 4 1 2.01893e-06 
-0.33075 -0.374954 -4.03595 0.0025 0.720786 0.632347 2.19321 0.00693687 73 4 1 1.98512e-06 
-0.327301 -0.362381 -4.05588 0.0025 0.729001 0.642458 2.20317 0.0068587 74 4 1 1.9221e-06 
-0.323891 -0.349951 -4.05123 0.0025 0.737198 0.652593 2.21305 0.00678244 75 4 1 1.89245e-06 
-0.320518 -0.337636 -4.08012 0.0025 0.745382 0.662757 2.22284 0.00670797 76 4 1 1.86029e-06 
-0.317182 -0.32546 -4.08468 0.0025 0.753558 0.672953 2.23256 0.00663519 77 4 1 1.76897e-06 
-0.313883 -0.313434 -4.06415 0.0025 0.76169 0.683143 2.24216 0.00656435 78 4 1 1.75025e-06 
-0.310618 -0.301564 -4.09095 0.0025 0.769796 0.693341 2.25167 0.00649523 79 4 1 1.723e-06 
-0.307387 -0.289819 -4.0851 0.0025 0.777885 0.703562 2.26111 0.00642768 80 4 1 1.68281e-06 
-0.30419 -0.278187 -4.10314 0.0025 0.785954 0.7138 2.27046 0.0063617 81 4 1 1.66977e-06 
-0.301025 -0.266658 -4.11927 0.0025 0.794016 0.72407 2.27974 0.0062971 82 4 1 1.59167e-06 
-0.297893 -0.2553 -4.09356 0.0025 0.802042 0.734336 2.28893 0.00623408 83 4 1 1.56887e-06 
-0.294791 -0.244042 -4.12048 0.0025 0.810039 0.744605 2.29803 0.00617254 84 4 1 1.52953e-06 
-0.29172 -0.232948 -4.09509 0.0025 0.818007 0.754879 2.30704 0.00611242 85 4 1 1.51417e-06 
-0.288679 -0.221926 -4.13345 0.0025 0.825957 0.76517 2.31598 0.00605359 86 4 1 1.50707e-06 
-0.285666 -0.211025 -4.13445 0.0025 0.833906 0.775498 2.32487 0.00599588 87 4 1 1.44989e-06 
-0.282683 -0.200184 -4.1377 0.0025 0.84183 0.785833 2.33368 0.00593944 88 4 1 1.39939e-06 
-0.279727 -0.189553 -4.12031 0.0025 0.849715 0.796157 2.3424 0.00588432 89 4 1 1.38901e-06 
-0.276798 -0.178969 -4.14351 0.0025 0.857575 0.806484 2.35104 0.00583039 90 4 1 1.31107e-06 
-0.273896 -0.168599 -4.08154 0.0025 0.865382 0.816784 2.35957 0.00577779 91 4 1 1.38758e-06 
-0.27102 -0.158247 -4.20541 0.0025 0.873204 0.827137 2.36808 0.00572604 92 4 1 1.31547e-06 
-0.26817 -0.147919 -4.10474 0.0025 0.881019 0.837515 2.37653 0.00567525 93 4 1 1.26145e-06 
-0.265345 -0.137874 -4.1756 0.0025 0.888785 0.847873 2.38489 0.00562565 94 4 1 1.3162e-06 
-0.262544 -0.127665 -4.17991 0.0025 0.89657 0.858279 2.39323 0.00557681 95 4 1 1.06596e-06 
-0.259768 -0.117895 -4.00383 0.0025 0.904215 0.868548 2.40136 0.00552966 96 4 1 1.23255e-06 
-0.257015 -0.108204 -4.21848 0.0025 0.911853 0.878842 2.40946 0.00548334 97 4 1 1.27816e-06 
-0.254284 -0.0982556 -4.14785 0.0025 0.919558 0.889241 2.41758 0.00543739 98 4 1 9.3078e-07 
-0.251577 -0.0889308 -3.95664 0.0025 0.927082 0.899456 2.42547 0.00539326 99 4 1 1.31843e-06 
-0.248891 -0.0793965 -4.36705 0.0025 0.934714 0.909846 2.43344 0.00534923 100 4 1 1.32092e-06 
-0.246228 -0.0694427 -4.24227 0.0025 0.942479 0.920414 2.44152 0.00530516 101 4 1 4.85465e-07 
-0.243586 -0.0605727 -3.64535 0.0025 0.949753 0.93038 2.44902 0.00526453 102 4 1 7.99878e-07 
-0.240963 -0.0521618 -3.96127 0.0025 0.956823 0.940125 2.45628 0.00522563 103 4 1 1.62816e-06 
-0.23836 -0.0427365 -4.49411 0.0025 0.964389 0.95054 2.46406 0.00518463 104 4 1 1.20349e-06 
-0.235778 -0.0331173 -4.24328 0.0025 0.972065 0.961106 2.47191 0.00514369 105 4 1 -3.85297e-08 
-0.233216 -0.0248924 -3.20081 0.0025 0.978884 0.970543 2.4788 0.00510786 106 4 1 -5.94104e-08 
-0.23067 -0.0182936 -3.06484 0.0025 0.984984 0.97911 2.48491 0.00507622 107 4 1 2.56717e-06 
-0.22814 -0.00948773 -5.488 0.0025 0.992462 0.989567 2.49249 0.00503798 108 4 1 2.541e-06 
-0.225632 0.00249352 -5.27074 0.0025 1.00111 1.00147 2.50128 0.00499446 109 4 1 -2.90897e-06 
-0.223146 0.00903094 -0.854151 0.0025 1.00654 1.00901 2.50661 0.00496752 110 4 1 -2.99206e-06 
-0.220665 0.00912199 -0.0381342 0.0025 1.0087 1.01233 2.50859 0.00495686 111 4 1 3.96057e-06 
-0.218189 0.0153903 -5.87593 0.0025 1.014 1.01984 2.51397 0.00493095 112 4 1 3.74169e-06 
-0.215734 0.0276747 -5.04222 0.0025 1.02219 1.03108 2.52223 0.00489146 113 4 1 -3.77598e-06 
-0.213297 0.0323023 -0.267864 0.0025 1.02641 1.03699 2.52633 0.00487133 114 3 1 -3.85222e-06 
-0.210863 0.0313568 0.905335 0.0025 1.02605 1.03661 2.52591 0.00487306 115 4 1 -1.0836e-06 
-0.208424 0.0291045 1.2107 0.0025 1.02419 1.03403 2.52406 0.0048819 116 4 1 -2.62286e-07 
-0.205981 0.0264619 1.32395 0.0025 1.02193 1.03084 2.52182 0.00489273 117 4 1 -2.77006e-08 
-0.203531 0.0236592 1.37678 0.0025 1.01951 1.02743 2.51943 0.00490432 118 4 1 3.93893e-08 
-0.201076 0.0207574 1.41667 0.0025 1.01702 1.02392 2.51696 0.00491632 119 4 1 8.75684e-08 
-0.198615 0.0178012 1.43332 0.0025 1.01451 1.02038 2.51446 0.0049285 120 4 1 1.48003e-07 
-0.196148 0.0148645 1.40974 0.0025 1.01204 1.01691 2.51201 0.00494051 121 4 1 2.16774e-07 
-0.193675 0.0120485 1.3345 0.0025 1.0097 1.01362 2.50968 0.00495195 122 4 1 2.7785e-07 
-0.191196 0.0094598 1.20854 0.0025 1.00758 1.01064 2.50756 0.00496239 123 4 1 3.16546e-07 
-0.188712 0.00718658 1.04445 0.0025 1.00573 1.00805 2.50572 0.00497151 124 4 1 3.26107e-07 
-0.186224 0.00528102 0.861444 0.0025 1.0042 1.00589 2.50419 0.00497911 125 4 1 3.08572e-07 
-0.183733 0.00375462 0.679157 0.0025 1.00297 1.00418 2.50297 0.00498518 126 4 1 2.71748e-07 
-0.181239 0.00258389 0.513008 0.0025 1.00204 1.00287 2.50203 0.00498982 127 4 1 2.25148e-07 
-0.178743 0.00172209 0.372177 0.0025 1.00136 1.00191 2.50135 0.00499322 128 4 1 1.7698e-07 
-0.176246 0.00111184 0.259889 0.0025 1.00088 1.00123 2.50087 0.00499563 129 4 1 1.32822e-07 
-0.173748 0.000695409 0.174971 0.0025 1.00055 1.00077 2.50054 0.00499727 130 4 1 9.55966e-08 
-0.171249 0.000421192 0.113694 0.0025 1.00033 1.00047 2.50033 0.00499835 131 4 1 6.61772e-08 
-0.168749 0.000246833 0.0713306 0.0025 1.00019 1.00027 2.50019 0.00499903 132 4 1 4.41371e-08 
-0.16625 0.000139775 0.0431994 0.0025 1.00011 1.00016 2.50011 0.00499945 133 4 1 2.83819e-08 
-0.16375 7.63365e-05 0.0252322 0.0025 1.00006 1.00008 2.50006 0.0049997 134 4 1 1.75949e-08 
-0.16125 4.01027e-05 0.0141912 0.0025 1.00003 1.00004 2.50003 0.00499984 135 4 1 1.05077e-08 
-0.15875 2.01937e-05 0.00766725 0.0025 1.00002 1.00002 2.50002 0.00499992 136 4 1 6.03632e-09 
-0.15625 9.69977e-06 0.00396611 0.0025 1.00001 1.00001 2.50001 0.00499996 137 4 1 3.32833e-09 
-0.15375 4.41454e-06 0.00195502 0.0025 1 1 2.5 0.00499998 138 4 1 1.75595e-09 
-0.15125 1.88509e-06 0.000912182 0.0025 1 1 2.5 0.00499999 139 4 1 8.82497e-10 
-0.14875 7.43968e-07 0.000398863 0.0025 1 1 2.5 0.005 140 4 1 4.19843e-10 
-0.14625 2.6459e-07 0.000160871 0.0025 1 1 2.5 0.005 141 4 1 1.8732e-10 
-0.14375 8.07927e-08 5.81879e-05 0.0025 1 1 2.5 0.005 142 4 1 7.72284e-11 
-0.14125 1.88453e-08 1.78549e-05 0.0025 1 1 2.5 0.005 143 4 1 2.85803e-11 
-0.13875 1.99141e-09 3.95913e-06 0.0025 1 1 2.5 0.005 144 4 1 9.31626e-12 
-0.13625 -5.3668e-10 -3.75254e-07 0.0025 1 1 2.5 0.005 145 5 1 2.13281e-12 
-0.13375 5.78037e-10 -4.32095e-07 0.0025 1 1 2.5 0.005 146 4 1 -2.89172e-13 
-0.13125 7.48775e-10 4.91018e-08 0.0025 1 1 2.5 0.005 147 3 1 -2.46662e-13 
-0.12875 5.27728e-10 1.3276e-07 0.0025 1 1 2.5 0.005 148 4 1 -5.01217e-15 
-0.12625 2.93184e-10 1.06146e-07 0.0025 1 1 2.5 0.005 149 4 1 4.97153e-14 
-0.12375 1.37747e-10 6.28636e-08 0.0025 1 1 2.5 0.005 150 4 1 4.54516e-14 
-0.12125 5.52914e-11 3.06368e-08 0.0025 1 1 2.5 0.005 151 4 1 2.8248e-14 
-0.11875 1.84537e-11 1.26143e-08 0.0025 1 1 2.5 0.005 152 4 1 1.42521e-14 
-0.11625 4.64864e-12 4.24137e-09 0.0025 1 1 2.5 0.005 153 4 1 6.01759e-15 
-0.11375 5.75829e-13 1.01147e-09 0.0025 1 1 2.5 0.005 154 4 1 2.13483e-15 
-0.11125 -1.51025e-13 -2.84217e-12 0.0025 1 1 2.5 0.005 155 5 1 5.23315e-16 
-0.10875 6.71955e-14 -1.00158e-10 0.0025 1 1 2.5 0.005 156 4 1 -3.12639e-17 
-0.10625 1.06515e-13 2.38742e-12 0.0025 1 1 2.5 0.005 157 3 1 -5.47118e-17 
-0.10375 7.48768e-14 2.29079e-11 0.0025 1 1 2.5 0.005 158 4 1 3.90799e-18 
-0.10125 3.49765e-14 1.68257e-11 0.0025 1 1 2.5 0.005 159 4 1 5.32907e-18 
-0.09875 1.36051e-14 1.16529e-11 0.0025 1 1 2.5 0.005 160 4 1 8.52651e-18 
-0.09625 -1.74058e-16 1.7053e-12 0.0025 1 1 2.5 0.005 161 5 1 4.61853e-18 
-0.09375 -1.18456e-15 -3.9443e-29 0.0025 1 1 2.5 0.005 162 5 1 -3.55271e-19 
-0.09125 -1.16697e-15 -1.7053e-13 0.0025 1 1 2.5 0.005 163 5 1 -1.42109e-18 
-0.08875 -1.28869e-15 1.13687e-13 0.0025 1 1 2.5 0.005 164 5 1 -1.42109e-18 
-0.08625 -1.60156e-15 -2.27374e-13 0.0025 1 1 2.5 0.005 165 5 1 -1.42109e-18 
-0.08375 -2.12309e-15 1.00893e-43 0.0025 1 1 2.5 0.005 166 5 1 -1.42109e-18 
-0.08125 -4.79335e-16 -1.13687e-13 0.0025 1 1 2.5 0.005 167 5 1 -3.90799e-18 
-0.07875 -3.15769e-15 -1.13687e-13 0.0025 1 1 2.5 0.005 168 5 1 6.75016e-18 
-0.07625 -1.03489e-15 2.27374e-13 0.0025 1 1 2.5 0.005 169 5 1 -1.38556e-17 
-0.07375 -9.88615e-16 1.13687e-13 0.0025 1 1 2.5 0.005 170 5 1 8.88178e-18 
-0.07125 9.14075e-16 -1.12104e-44 0.0025 1 1 2.5 0.005 171 5 1 -1.24345e-17 
-0.06875 -4.33381e-17 3.9443e-29 0.0025 1 1 2.5 0.005 172 5 1 1.10134e-17 
-0.06625 1.98104e-15 5.68434e-14 0.0025 1 1 2.5 0.005 173 5 1 -1.59872e-17 
-0.06375 1.248e-15 -1.66252e-26 0.0025 1 1 2.5 0.005 174 4 1 -2.13163e-18 
-0.06125 -1.36282e-15 -5.68434e-14 0.0025 1 1 2.5 0.005 175 3 1 3.12639e-17 
-0.05875 9.28909e-16 1.7053e-13 0.0025 1 1 2.5 0.005 176 4 1 -2.62901e-17 
-0.05625 -6.97122e-16 1.13687e-13 0.0025 1 1 2.5 0.005 177 5 1 2.84217e-18 
-0.05375 1.06435e-15 -7.88861e-29 0.0025 1 1 2.5 0.005 178 4 1 3.55271e-19 
-0.05125 -2.31806e-16 1.38051e-27 0.0025 1 1 2.5 0.005 179 5 1 -1.77636e-18 
-0.04875 2.79384e-15 -8.96831e-44 0.0025 1 1 2.5 0.005 180 5 1 -3.90799e-18 
-0.04625 2.22571e-15 -1.34525e-43 0.0025 1 1 2.5 0.005 181 5 1 -7.10543e-19 
-0.04375 6.63487e-16 -5.68434e-14 0.0025 1 1 2.5 0.005 182 5 1 -1.06581e-18 
-0.04125 -3.37617e-16 -4.54747e-13 0.0025 1 1 2.5 0.005 183 5 1 -2.4869e-18 
-0.03875 -2.85682e-15 -1.85382e-27 0.0025 1 1 2.5 0.005 184 5 1 -1.77636e-18 
-0.03625 -5.59662e-15 -1.7053e-13 0.0025 1 1 2.5 0.005 185 4 1 -8.88178e-18 
-0.03375 3.30408e-15 5.11591e-13 0.0025 1 1 2.5 0.005 186 4 1 -1.10134e-17 
-0.03125 -2.81458e-15 -2.27374e-13 0.0025 1 1 2.5 0.005 187 3 1 5.11591e-17 
-0.02875 -1.84491e-15 1.13687e-13 0.0025 1 1 2.5 0.005 188 4 1 -3.76588e-17 
-0.02625 -2.64475e-15 1.25056e-12 0.0025 1 1 2.5 0.005 189 5 1 7.81597e-18 
-0.02375 -3.05639e-15 -1.08002e-12 0.0025 1 1 2.5 0.005 190 3 1 0 
-0.02125 -2.52861e-15 1.41995e-27 0.0025 1 1 2.5 0.005 191 3 1 4.26326e-18 
-0.01875 2.81609e-16 1.13687e-13 0.0025 1 1 2.5 0.005 192 5 1 -6.03961e-18 
-0.01625 -2.16378e-15 -1.7053e-13 0.0025 1 1 2.5 0.005 193 4 1 1.77636e-18 
-0.01375 -5.38566e-16 -1.13687e-13 0.0025 1 1 2.5 0.005 194 3 1 2.13163e-18 
-0.01125 -1.11514e-15 1.08002e-12 0.0025 1 1 2.5 0.005 195 4 1 -1.77636e-18 
-0.00875 7.41034e-18 -6.82121e-13 0.0025 1 1 2.5 0.005 196 5 1 3.55271e-19 
-0.00625 4.06387e-16 -1.13687e-13 0.0025 1 1 2.5 0.005 197 4 1 -1.77636e-18 
-0.00375 -2.72961e-16 -1.13687e-13 0.0025 1 1 2.5 0.005 198 4 1 3.55271e-19 
-0.00125 -1.93367e-16 -1.7053e-13 0.0025 1 1 2.5 0.005 199 3 1 -1.42109e-18 
0.00125 4.42391e-17 5.68434e-14 0.0025 1 1 2.5 0.005 200 4 1 -7.10543e-19 
0.00375 -1.75433e-16 1.13687e-13 0.0025 1 1 2.5 0.005 201 4 1 -2.13163e-18 
0.00625 -5.4148e-16 3.97904e-13 0.0025 1 1 2.5 0.005 202 5 1 7.54965e-33 
0.00875 -8.82732e-16 -5.68434e-13 0.0025 1 1 2.5 0.005 203 3 1 3.55271e-19 
0.01125 -1.36034e-15 6.25278e-13 0.0025 1 1 2.5 0.005 204 4 1 2.4869e-18 
0.01375 9.91851e-16 1.13687e-13 0.0025 1 1 2.5 0.005 205 4 1 -3.90799e-18 
0.01625 2.79446e-16 4.54747e-13 0.0025 1 1 2.5 0.005 206 5 1 -7.10543e-19 
0.01875 -3.81503e-16 -1.93271e-27 0.0025 1 1 2.5 0.005 207 4 1 3.55271e-19 
0.02125 -8.9965e-16 -5.11591e-13 0.0025 1 1 2.5 0.005 208 3 1 3.90799e-18 
0.02375 1.06229e-15 -1.13687e-13 0.0025 1 1 2.5 0.005 209 3 1 1.77636e-18 
0.02625 1.04756e-15 -1.30162e-27 0.0025 1 1 2.5 0.005 210 5 1 -9.59233e-18 
0.02875 -1.44776e-16 2.27374e-13 0.0025 1 1 2.5 0.005 211 4 1 3.55271e-19 
0.03125 5.46369e-15 -2.84217e-13 0.0025 1 1 2.5 0.005 212 3 1 6.39488e-18 
0.03375 4.0998e-15 -1.7053e-13 0.0025 1 1 2.5 0.005 213 4 1 1.77636e-18 
0.03625 4.32678e-15 3.97904e-13 0.0025 1 1 2.5 0.005 214 5 1 -1.74083e-17 
0.03875 3.14251e-15 1.13687e-13 0.0025 1 1 2.5 0.005 215 4 1 1.77636e-17 
0.04125 3.78537e-15 5.68434e-14 0.0025 1 1 2.5 0.005 216 4 1 -1.35003e-17 
0.04375 2.95226e-15 9.66338e-13 0.0025 1 1 2.5 0.005 217 4 1 -4.9738e-18 
0.04625 3.05e-15 -2.84217e-12 0.0025 1 1 2.5 0.005 218 3 1 1.91847e-17 
0.04875 4.23236e-15 1.36424e-12 0.0025 1 1 2.5 0.005 219 4 1 -1.52767e-17 
0.05125 2.28198e-15 9.09495e-13 0.0025 1 1 2.5 0.005 220 5 1 -4.26326e-18 
0.05375 2.27471e-15 -5.68434e-14 0.0025 1 1 2.5 0.005 221 3 1 1.38556e-17 
0.05625 2.26693e-15 1.81899e-12 0.0025 1 1 2.5 0.005 222 5 1 1.03029e-17 
0.05875 2.55582e-15 -3.18323e-12 0.0025 1 1 2.5 0.005 223 4 1 -6.50147e-17 
0.06125 5.48968e-15 5.68434e-13 0.0025 1 1 2.5 0.005 224 3 1 6.2883e-17 
0.06375 3.37648e-15 3.41061e-13 0.0025 1 1 2.5 0.005 225 4 1 -3.55271e-19 
0.06625 6.38039e-16 -5.68434e-14 0.0025 1 1 2.5 0.005 226 5 1 -2.77112e-17 
0.06875 4.75763e-15 -1.13687e-13 0.0025 1 1 2.5 0.005 227 5 1 1.88294e-17 
0.07125 1.11497e-15 -1.13687e-13 0.0025 1 1 2.5 0.005 228 5 1 -1.52767e-17 
0.07375 3.86695e-15 -1.56945e-43 0.0025 1 1 2.5 0.005 229 5 1 8.88178e-18 
0.07625 3.72781e-15 -1.13687e-13 0.0025 1 1 2.5 0.005 230 5 1 -1.3145e-17 
