# Time [s]: 0.229175
# Columns: pos [m], vel [m/s], acc [m/s^2], mass [kg], dens [kg/m^3], pres [Pa], ene [J/kg], sml [m], id, neighbor, alpha, gradh, ...additional?
1.34797 -0.673144 0.00111933 0.0025 0.511017 0.432687 2.15245 0.0097844 0 4 1 -0.000134226 
1.35275 -0.67315 0.00117167 0.0025 0.536871 0.426148 1.94999 0.00931323 1 4 1 0.000179246 
1.35729 -0.673157 0.001216 0.0025 0.548197 0.430815 1.96844 0.0091208 2 3 1 -1.90586e-05 
1.36187 -0.673164 0.00126227 0.0025 0.54593 0.429148 1.96458 0.00915868 3 5 1 3.48614e-06 
1.36645 -0.673172 0.00132374 0.0025 0.546325 0.4293 1.96451 0.00915206 4 4 1 -1.38838e-07 
1.37103 -0.673181 0.00141663 0.0025 0.546333 0.429267 1.96428 0.00915192 5 4 1 1.43453e-07 
1.3756 -0.67319 0.00155246 0.0025 0.546353 0.429262 1.96422 0.00915159 6 4 1 -3.90256e-09 
1.38018 -0.6732 0.00173247 0.0025 0.546363 0.429255 1.96415 0.00915143 7 4 1 7.72435e-09 
1.38475 -0.673211 0.00194781 0.0025 0.546373 0.42925 1.96409 0.00915126 8 4 1 4.15966e-09 
1.38933 -0.673222 0.00218483 0.0025 0.546381 0.429245 1.96404 0.00915113 9 4 1 4.80877e-09 
1.3939 -0.673233 0.00243084 0.0025 0.546387 0.429239 1.96399 0.00915102 10 4 1 -2.94056e-09 
1.39848 -0.673245 0.00267896 0.0025 0.546392 0.429232 1.96394 0.00915093 11 4 1 4.00591e-09 
1.40305 -0.673259 0.00293422 0.0025 0.546396 0.429225 1.96389 0.00915086 12 4 1 2.0892e-09 
1.40763 -0.673273 0.00321782 0.0025 0.546398 0.429217 1.96384 0.00915083 13 4 1 2.71954e-09 
1.41221 -0.673288 0.00355763 0.0025 0.546399 0.429208 1.9638 0.00915083 14 3 1 1.12143e-09 
1.41678 -0.673304 0.00396074 0.0025 0.546398 0.429198 1.96376 0.00915085 15 4 1 -2.72712e-09 
1.42136 -0.673322 0.00439099 0.0025 0.546395 0.429187 1.96372 0.00915088 16 4 1 3.69472e-09 
1.42593 -0.673341 0.00478887 0.0025 0.546391 0.429175 1.96368 0.00915096 17 4 1 3.2306e-10 
1.43051 -0.673362 0.00513743 0.0025 0.546385 0.429162 1.96364 0.00915105 18 4 1 -2.3039e-09 
1.43508 -0.673385 0.00551423 0.0025 0.546378 0.429148 1.9636 0.00915117 19 4 1 1.44513e-09 
1.43966 -0.673412 0.00605134 0.0025 0.54637 0.429133 1.96356 0.00915131 20 4 1 -4.99415e-10 
1.44423 -0.673441 0.00680946 0.0025 0.546359 0.429116 1.96352 0.00915149 21 4 1 -9.86065e-10 
1.44881 -0.673472 0.0076926 0.0025 0.546347 0.429097 1.96348 0.0091517 22 4 1 -1.41779e-09 
1.45339 -0.673506 0.00852897 0.0025 0.546331 0.429076 1.96344 0.00915195 23 4 1 -2.63026e-09 
1.45796 -0.673545 0.00927115 0.0025 0.546314 0.429052 1.96339 0.00915225 24 4 1 -9.39657e-10 
1.46254 -0.673588 0.0101017 0.0025 0.546294 0.429026 1.96335 0.00915258 25 4 1 -2.05878e-09 
1.46711 -0.673638 0.0112916 0.0025 0.546271 0.428997 1.9633 0.00915296 26 4 1 -4.06903e-09 
1.47169 -0.673694 0.0129221 0.0025 0.546246 0.428965 1.96324 0.00915339 27 4 1 -3.51731e-09 
1.47627 -0.673755 0.0147793 0.0025 0.546215 0.428929 1.96319 0.0091539 28 4 1 -4.48327e-09 
1.48084 -0.673823 0.0166013 0.0025 0.54618 0.428887 1.96312 0.00915449 29 4 1 -6.28486e-09 
1.48542 -0.6739 0.0184259 0.0025 0.546141 0.42884 1.96305 0.00915515 30 4 1 -5.32693e-09 
1.49 -0.673989 0.0205773 0.0025 0.546095 0.428788 1.96297 0.00915591 31 4 1 -4.80575e-09 
1.49458 -0.67409 0.0233066 0.0025 0.546044 0.428729 1.96289 0.00915677 32 4 1 -9.0112e-09 
1.49916 -0.674204 0.0265848 0.0025 0.545986 0.428662 1.96279 0.00915774 33 4 1 -1.02252e-08 
-0.496264 -0.674331 0.0302052 0.0025 0.54592 0.428587 1.96268 0.00915885 34 4 1 -7.92804e-09 
-0.491684 -0.674474 0.0339625 0.0025 0.545845 0.428503 1.96257 0.00916011 35 4 1 -1.01633e-08 
-0.487104 -0.674633 0.0377379 0.0025 0.545761 0.428408 1.96244 0.00916152 36 4 1 -9.91157e-09 
-0.482523 -0.674808 0.0412557 0.0025 0.54567 0.428306 1.9623 0.00916305 37 4 1 -5.37334e-09 
-0.477941 -0.674998 0.044021 0.0025 0.545572 0.428197 1.96215 0.0091647 38 4 1 -2.78157e-09 
-0.473358 -0.675199 0.0456167 0.0025 0.545471 0.428084 1.96199 0.00916639 39 4 1 2.03673e-09 
-0.468775 -0.675401 0.0453212 0.0025 0.545372 0.427974 1.96184 0.00916805 40 4 1 1.14659e-08 
-0.46419 -0.675592 0.0424437 0.0025 0.545282 0.427874 1.96171 0.00916957 41 4 1 2.08278e-08 
-0.459605 -0.675748 0.0358569 0.0025 0.545207 0.427791 1.96159 0.00917082 42 4 1 2.25735e-08 
-0.455019 -0.675855 0.0311093 0.0025 0.545153 0.427731 1.96151 0.00917174 43 5 1 7.07905e-08 
-0.450433 -0.675914 -0.0142208 0.0025 0.545157 0.427736 1.9615 0.00917167 44 4 1 1.16972e-07 
-0.445848 -0.675712 -0.0538693 0.0025 0.545256 0.427843 1.96164 0.00917001 45 4 1 1.16503e-07 
-0.441263 -0.675483 -0.0625275 0.0025 0.545455 0.428074 1.96192 0.00916665 46 4 1 4.4568e-07 
-0.436681 -0.674645 -0.340153 0.0025 0.546014 0.428708 1.96271 0.00915727 47 4 1 1.08652e-06 
-0.432106 -0.672075 -0.834824 0.0025 0.547381 0.430215 1.96467 0.0091344 48 4 1 1.34991e-06 
-0.427547 -0.667596 -1.18568 0.0025 0.549645 0.432699 1.96792 0.00909678 49 4 1 1.26212e-06 
-0.423009 -0.66198 -1.41913 0.0025 0.552606 0.435965 1.97215 0.00904804 50 4 1 1.50543e-06 
-0.418498 -0.655149 -1.77687 0.0025 0.556275 0.440035 1.97737 0.00898835 51 4 1 2.15249e-06 
-0.414021 -0.646532 -2.27999 0.0025 0.560884 0.445153 1.9839 0.00891451 52 4 1 2.7618e-06 
-0.409584 -0.635892 -2.77999 0.0025 0.566547 0.451457 1.99189 0.00882539 53 4 1 3.16452e-06 
-0.405195 -0.623416 -3.23142 0.0025 0.573196 0.458881 2.00121 0.00872302 54 4 1 3.22301e-06 
-0.40086 -0.609673 -3.4931 0.0025 0.580579 0.467161 2.01148 0.00861209 55 4 1 2.98118e-06 
-0.396583 -0.595387 -3.60661 0.0025 0.588357 0.475933 2.02221 0.00849825 56 4 1 2.71308e-06 
-0.392362 -0.581057 -3.64361 0.0025 0.596282 0.484924 2.03306 0.00838529 57 4 1 2.43619e-06 
-0.388197 -0.566915 -3.60936 0.0025 0.604186 0.493938 2.0438 0.0082756 58 4 1 2.13222e-06 
-0.384086 -0.553264 -3.51802 0.0025 0.611936 0.502826 2.05424 0.0081708 59 4 1 1.9272e-06 
-0.380026 -0.540085 -3.44811 0.0025 0.619484 0.511529 2.06433 0.00807123 60 4 1 1.75862e-06 
-0.376014 -0.527417 -3.34927 0.0025 0.626823 0.52003 2.07407 0.00797674 61 4 1 1.61616e-06 
-0.372049 -0.515267 -3.26675 0.0025 0.63395 0.528329 2.08347 0.00788706 62 4 1 1.61028e-06 
-0.368127 -0.503454 -3.24111 0.0025 0.640939 0.536505 2.09262 0.00780105 63 4 1 1.68048e-06 
-0.364247 -0.491826 -3.2569 0.0025 0.647891 0.544674 2.10167 0.00771735 64 4 1 1.82654e-06 
-0.360409 -0.480158 -3.34719 0.0025 0.65492 0.552969 2.11075 0.00763452 65 4 1 1.99957e-06 
-0.356613 -0.468271 -3.46839 0.0025 0.662128 0.56151 2.12001 0.00755141 66 4 1 2.13383e-06 
-0.352858 -0.456082 -3.60706 0.0025 0.669564 0.570358 2.1295 0.00746755 67 4 1 2.22498e-06 
-0.349145 -0.443624 -3.73925 0.0025 0.677237 0.579528 2.13923 0.00738294 68 4 1 2.25766e-06 
-0.345474 -0.43091 -3.85053 0.0025 0.685119 0.588987 2.14915 0.00729801 69 4 1 2.19535e-06 
-0.341847 -0.418177 -3.89793 0.0025 0.693134 0.598653 2.15917 0.00721362 70 4 1 2.1603e-06 
-0.338261 -0.405376 -3.9704 0.0025 0.701239 0.608474 2.16923 0.00713024 71 4 1 2.11933e-06 
-0.334716 -0.392567 -3.99835 0.0025 0.709407 0.618416 2.1793 0.00704814 72 4 1 2.0273e-06 
-0.331212 -0.379885 -4.00969 0.0025 0.717585 0.628418 2.18931 0.00696782 73 4 1 1.97923e-06 
-0.327748 -0.367337 -4.02861 0.0025 0.725759 0.638462 2.19925 0.00688934 74 4 1 1.91971e-06 
-0.324323 -0.354901 -4.0262 0.0025 0.733918 0.648531 2.2091 0.00681275 75 4 1 1.88871e-06 
-0.320935 -0.342621 -4.05272 0.0025 0.742064 0.65863 2.21888 0.00673797 76 4 1 1.85749e-06 
-0.317584 -0.330452 -4.05927 0.0025 0.750202 0.668763 2.22858 0.00666487 77 4 1 1.7802e-06 
-0.31427 -0.318406 -4.04949 0.0025 0.758307 0.678899 2.23817 0.00659363 78 4 1 1.74484e-06 
-0.310991 -0.306561 -4.06153 0.0025 0.766382 0.68904 2.24767 0.00652416 79 4 1 1.71253e-06 
-0.307746 -0.294811 -4.0606 0.0025 0.774434 0.699196 2.25709 0.00645633 80 4 1 1.67869e-06 
-0.304534 -0.283199 -4.07416 0.0025 0.782465 0.709368 2.26642 0.00639006 81 4 1 1.67248e-06 
-0.301355 -0.271696 -4.09887 0.0025 0.790494 0.719577 2.27569 0.00632516 82 4 1 1.59678e-06 
-0.298209 -0.260303 -4.07195 0.0025 0.798492 0.729789 2.28487 0.0062618 83 4 1 1.56777e-06 
-0.295093 -0.24908 -4.09857 0.0025 0.806459 0.740003 2.29396 0.00619994 84 4 1 1.52602e-06 
-0.292009 -0.237951 -4.07125 0.0025 0.814396 0.750219 2.30296 0.00613952 85 4 1 1.50611e-06 
-0.288954 -0.226976 -4.10499 0.0025 0.82231 0.760445 2.31189 0.00608043 86 4 1 1.49341e-06 
-0.285928 -0.216071 -4.09966 0.0025 0.830217 0.7707 2.32075 0.00602252 87 4 1 1.47106e-06 
-0.282931 -0.205254 -4.1329 0.0025 0.838115 0.780982 2.32956 0.00596577 88 4 1 1.40047e-06 
-0.279962 -0.194582 -4.08826 0.0025 0.845977 0.791257 2.33827 0.00591032 89 4 1 1.3868e-06 
-0.277021 -0.184044 -4.13276 0.0025 0.85381 0.801531 2.3469 0.00585611 90 4 1 1.32595e-06 
-0.274106 -0.173587 -4.06624 0.0025 0.8616 0.811788 2.35544 0.00580316 91 4 1 1.32214e-06 
-0.271217 -0.163359 -4.12777 0.0025 0.869361 0.822046 2.36391 0.00575135 92 4 1 1.37678e-06 
-0.268354 -0.15298 -4.1539 0.0025 0.877154 0.832376 2.37236 0.00570025 93 4 1 1.22823e-06 
-0.265517 -0.142927 -4.07352 0.0025 0.884889 0.842673 2.3807 0.00565042 94 4 1 1.31571e-06 
-0.262704 -0.132819 -4.21485 0.0025 0.892633 0.853013 2.38902 0.0056014 95 4 1 1.18856e-06 
-0.259915 -0.122818 -4.0442 0.0025 0.900329 0.86332 2.39723 0.00555352 96 4 1 1.05563e-06 
-0.25715 -0.113272 -4.04781 0.0025 0.907889 0.873498 2.40526 0.00550728 97 4 1 1.34553e-06 
-0.254408 -0.103417 -4.25441 0.0025 0.915551 0.883828 2.41337 0.00546119 98 4 1 1.06181e-06 
-0.251689 -0.0937645 -3.96173 0.0025 0.923141 0.894096 2.42134 0.00541629 99 4 1 9.99341e-07 
-0.248992 -0.0845816 -4.08573 0.0025 0.930605 0.904253 2.42915 0.00537285 100 4 1 1.47974e-06 
-0.246316 -0.0747781 -4.42135 0.0025 0.938319 0.914751 2.4372 0.00532868 101 4 1 9.33038e-07 
-0.243663 -0.0651928 -3.92571 0.0025 0.945888 0.925074 2.44504 0.00528604 102 4 1 4.23706e-07 
-0.24103 -0.0568011 -3.64208 0.0025 0.952936 0.934763 2.45229 0.00524694 103 4 1 1.19454e-06 
-0.238416 -0.0480829 -4.20076 0.0025 0.960129 0.944678 2.45968 0.00520763 104 4 1 1.60829e-06 
-0.235822 -0.0384961 -4.47956 0.0025 0.967801 0.955238 2.46755 0.00516635 105 4 1 7.52103e-07 
-0.233249 -0.0292488 -3.90492 0.0025 0.975216 0.965457 2.47511 0.00512707 106 4 1 -3.67156e-07 
-0.230695 -0.0218074 -2.82624 0.0025 0.981576 0.974303 2.4815 0.00509385 107 4 1 6.81646e-07 
-0.228156 -0.0151584 -3.75349 0.0025 0.987856 0.983146 2.4878 0.00506146 108 4 1 3.33608e-06 
-0.225634 -0.00466036 -6.07878 0.0025 0.996054 0.994536 2.49615 0.00501981 109 4 1 7.38275e-07 
-0.223136 0.00631787 -3.72237 0.0025 1.004 1.00546 2.50417 0.00498006 110 4 1 -4.1497e-06 
-0.220653 0.00966378 0.54578 0.0025 1.00766 1.01067 2.50764 0.004962 111 4 1 -6.47762e-07 
-0.218174 0.010324 -2.22571 0.0025 1.01025 1.01458 2.51013 0.00494928 112 4 1 5.45067e-06 
-0.215704 0.0202203 -6.67285 0.0025 1.01722 1.02427 2.51724 0.00491536 113 4 1 6.40217e-07 
-0.213258 0.0305758 -2.84996 0.0025 1.02445 1.03421 2.52445 0.00488066 114 4 1 -4.71031e-06 
-0.210823 0.0321382 0.393714 0.0025 1.02657 1.03726 2.52644 0.00487061 115 3 1 -2.60005e-06 
-0.208388 0.0305103 1.05359 0.0025 1.02536 1.03567 2.52522 0.00487631 116 4 1 -6.34711e-07 
-0.205947 0.0280534 1.27358 0.0025 1.02329 1.03276 2.52317 0.00488619 117 4 1 -1.3096e-07 
-0.203501 0.0253305 1.34824 0.0025 1.02095 1.02946 2.52085 0.0048974 118 4 1 6.4861e-09 
-0.20105 0.0224812 1.39586 0.0025 1.0185 1.026 2.51842 0.00490919 119 4 1 6.20457e-08 
-0.198592 0.0195536 1.42483 0.0025 1.016 1.02248 2.51594 0.00492128 120 4 1 1.13282e-07 
-0.196128 0.0166029 1.42477 0.0025 1.0135 1.01896 2.51346 0.0049334 121 4 1 1.76624e-07 
-0.193659 0.0137135 1.37989 0.0025 1.01108 1.01557 2.51106 0.00494519 122 4 1 2.42075e-07 
-0.191183 0.0109886 1.28377 0.0025 1.00883 1.0124 2.50881 0.00495623 123 4 1 2.93943e-07 
-0.188703 0.0085275 1.14198 0.0025 1.00682 1.00958 2.50681 0.00496613 124 4 1 3.20635e-07 
-0.186217 0.00640374 0.969868 0.0025 1.0051 1.00716 2.50509 0.00497463 125 4 1 3.18972e-07 
-0.183728 0.00465295 0.786876 0.0025 1.00369 1.00519 2.50368 0.00498161 126 4 1 2.93401e-07 
-0.181236 0.00327223 0.610987 0.0025 1.00259 1.00364 2.50258 0.00498709 127 4 1 2.52478e-07 
-0.178741 0.00222838 0.45509 0.0025 1.00176 1.00247 2.50175 0.00499122 128 4 1 2.05199e-07 
-0.176244 0.00147011 0.325916 0.0025 1.00116 1.00163 2.50115 0.00499422 129 4 1 1.58683e-07 
-0.173747 0.000939754 0.224859 0.0025 1.00074 1.00104 2.50074 0.00499631 130 4 1 1.17399e-07 
-0.171248 0.000582013 0.149669 0.0025 1.00046 1.00064 2.50046 0.00499771 131 4 1 8.34125e-08 
-0.168749 0.000349042 0.0961891 0.0025 1.00027 1.00039 2.50027 0.00499863 132 4 1 5.70532e-08 
-0.166249 0.000202501 0.0596999 0.0025 1.00016 1.00022 2.50016 0.0049992 133 4 1 3.76172e-08 
-0.16375 0.000113483 0.0357666 0.0025 1.00009 1.00013 2.50009 0.00499955 134 4 1 2.39189e-08 
-0.16125 6.13036e-05 0.0206616 0.0025 1.00005 1.00007 2.50005 0.00499976 135 4 1 1.46627e-08 
-0.15875 3.18312e-05 0.0114882 0.0025 1.00003 1.00004 2.50002 0.00499987 136 4 1 8.65732e-09 
-0.15625 1.58258e-05 0.00613205 0.0025 1.00001 1.00002 2.50001 0.00499994 137 4 1 4.91509e-09 
-0.15375 7.49439e-06 0.00313063 0.0025 1.00001 1.00001 2.50001 0.00499997 138 4 1 2.67672e-09 
-0.15125 3.35544e-06 0.00152086 0.0025 1 1 2.5 0.00499999 139 4 1 1.39351e-09 
-0.14875 1.40497e-06 0.000697835 0.0025 1 1 2.5 0.00499999 140 4 1 6.90158e-10 
-0.14625 5.40814e-07 0.000299056 0.0025 1 1 2.5 0.005 141 4 1 3.22916e-10 
-0.14375 1.85803e-07 0.000117543 0.0025 1 1 2.5 0.005 142 4 1 1.41243e-10 
-0.14125 5.37014e-08 4.09746e-05 0.0025 1 1 2.5 0.005 143 4 1 5.67808e-11 
-0.13875 1.11292e-08 1.17639e-05 0.0025 1 1 2.5 0.005 144 4 1 2.03225e-11 
-0.13625 5.10699e-10 2.3596e-06 0.0025 1 1 2.5 0.005 145 4 1 6.2852e-12 
-0.13375 -2.5382e-10 -8.26526e-07 0.0025 1 1 2.5 0.005 146 5 1 1.11862e-12 
-0.13125 6.74385e-10 -2.094e-07 0.0025 1 1 2.5 0.005 147 4 1 -4.04807e-13 
-0.12875 6.66437e-10 8.02843e-08 0.0025 1 1 2.5 0.005 148 3 1 -1.43504e-13 
-0.12625 4.35892e-10 1.24221e-07 0.0025 1 1 2.5 0.005 149 4 1 1.82208e-14 
-0.12375 2.30994e-10 8.94511e-08 0.0025 1 1 2.5 0.005 150 4 1 4.8944e-14 
-0.12125 1.04307e-10 5.00219e-08 0.0025 1 1 2.5 0.005 151 4 1 3.88422e-14 
-0.11875 4.01357e-11 2.33792e-08 0.0025 1 1 2.5 0.005 152 4 1 2.27196e-14 
-0.11625 1.26499e-11 9.17885e-09 0.0025 1 1 2.5 0.005 153 4 1 1.09537e-14 
-0.11375 2.86205e-12 2.89617e-09 0.0025 1 1 2.5 0.005 154 4 1 4.41958e-15 
-0.11125 2.07136e-13 6.32895e-10 0.0025 1 1 2.5 0.005 155 4 1 1.47793e-15 
-0.10875 -1.02156e-13 -1.27557e-10 0.0025 1 1 2.5 0.005 156 5 1 3.02336e-16 
-0.10625 8.2199e-14 -5.19549e-11 0.0025 1 1 2.5 0.005 157 4 1 -7.35412e-17 
-0.10375 9.51709e-14 8.41283e-12 0.0025 1 1 2.5 0.005 158 3 1 -2.45137e-17 
-0.10125 6.03391e-14 2.31921e-11 0.0025 1 1 2.5 0.005 159 4 1 3.55271e-19 
-0.09875 2.72793e-14 1.20508e-11 0.0025 1 1 2.5 0.005 160 4 1 8.88178e-18 
-0.09625 7.38578e-15 9.32232e-12 0.0025 1 1 2.5 0.005 161 4 1 7.10543e-18 
-0.09375 -1.04523e-15 9.09495e-13 0.0025 1 1 2.5 0.005 162 5 1 3.19744e-18 
-0.09125 -1.39342e-15 -2.27374e-13 0.0025 1 1 2.5 0.005 163 5 1 -1.42109e-18 
-0.08875 -1.35836e-15 -1.13687e-13 0.0025 1 1 2.5 0.005 164 5 1 -1.42109e-18 
-0.08625 -1.67124e-15 -2.24208e-44 0.0025 1 1 2.5 0.005 165 5 1 -1.42109e-18 
-0.08375 -2.2276e-15 -1.13687e-13 0.0025 1 1 2.5 0.005 166 5 1 -1.42109e-18 
-0.08125 -6.1869e-16 -1.13687e-13 0.0025 1 1 2.5 0.005 167 5 1 -3.90799e-18 
-0.07875 -3.29705e-15 -1.13687e-13 0.0025 1 1 2.5 0.005 168 5 1 6.75016e-18 
-0.07625 -7.91011e-16 1.13687e-13 0.0025 1 1 2.5 0.005 169 5 1 -1.35003e-17 
-0.07375 -8.31841e-16 1.7053e-13 0.0025 1 1 2.5 0.005 170 5 1 8.88178e-18 
-0.07125 9.31493e-16 5.68434e-14 0.0025 1 1 2.5 0.005 171 5 1 -1.20792e-17 
-0.06875 -4.33381e-17 3.9443e-29 0.0025 1 1 2.5 0.005 172 5 1 1.10134e-17 
-0.06625 2.01588e-15 5.68434e-14 0.0025 1 1 2.5 0.005 173 5 1 -1.59872e-17 
-0.06375 1.248e-15 -1.66252e-26 0.0025 1 1 2.5 0.005 174 4 1 -2.13163e-18 
-0.06125 -1.4325e-15 -5.68434e-14 0.0025 1 1 2.5 0.005 175 3 1 3.12639e-17 
-0.05875 1.10311e-15 5.68434e-14 0.0025 1 1 2.5 0.005 176 4 1 -2.62901e-17 
-0.05625 -5.2293e-16 2.27374e-13 0.0025 1 1 2.5 0.005 177 5 1 2.84217e-18 
-0.05375 1.06435e-15 -7.88861e-29 0.0025 1 1 2.5 0.005 178 4 1 3.55271e-19 
-0.05125 -2.31806e-16 1.38051e-27 0.0025 1 1 2.5 0.005 179 5 1 -1.77636e-18 
-0.04875 2.79384e-15 -8.96831e-44 0.0025 1 1 2.5 0.005 180 5 1 -3.90799e-18 
-0.04625 2.26055e-15 1.13687e-13 0.0025 1 1 2.5 0.005 181 5 1 -7.10543e-19 
-0.04375 5.41555e-16 -2.27374e-13 0.0025 1 1 2.5 0.005 182 5 1 -7.10543e-19 
-0.04125 -9.64714e-16 -5.68434e-13 0.0025 1 1 2.5 0.005 183 5 1 -2.13163e-18 
-0.03875 -2.80456e-15 1.7053e-13 0.0025 1 1 2.5 0.005 184 5 1 -5.68434e-18 
-0.03625 -5.45728e-15 3.97904e-13 0.0025 1 1 2.5 0.005 185 4 1 -4.61853e-18 
-0.03375 2.95572e-15 -5.11591e-13 0.0025 1 1 2.5 0.005 186 4 1 -1.06581e-17 
-0.03125 -1.59525e-15 1.02318e-12 0.0025 1 1 2.5 0.005 187 3 1 4.93827e-17 
-0.02875 -2.10619e-15 -2.84217e-13 0.0025 1 1 2.5 0.005 188 4 1 -3.76588e-17 
-0.02625 -2.66213e-15 5.68434e-14 0.0025 1 1 2.5 0.005 189 5 1 7.81597e-18 
-0.02375 -2.76028e-15 -4.54747e-13 0.0025 1 1 2.5 0.005 190 3 1 -3.55271e-19 
-0.02125 -2.77252e-15 1.25056e-12 0.0025 1 1 2.5 0.005 191 4 1 5.68434e-18 
-0.01875 1.42286e-16 -1.02318e-12 0.0025 1 1 2.5 0.005 192 5 1 -7.10543e-18 
-0.01625 -2.18121e-15 2.27374e-13 0.0025 1 1 2.5 0.005 193 4 1 1.42109e-18 
-0.01375 -3.64381e-16 2.27374e-13 0.0025 1 1 2.5 0.005 194 3 1 2.84217e-18 
-0.01125 -2.26728e-16 3.41061e-13 0.0025 1 1 2.5 0.005 195 4 1 -1.77636e-18 
-0.00875 -7.7647e-16 -5.11591e-13 0.0025 1 1 2.5 0.005 196 4 1 -3.55271e-19 
-0.00625 3.01874e-16 -2.27374e-13 0.0025 1 1 2.5 0.005 197 4 1 6.24001e-33 
-0.00375 -4.99416e-16 -5.68434e-14 0.0025 1 1 2.5 0.005 198 4 1 -7.10543e-19 
-0.00125 -1.06275e-16 2.46519e-28 0.0025 1 1 2.5 0.005 199 4 1 -7.10543e-19 
0.00125 -4.28566e-17 4.93038e-29 0.0025 1 1 2.5 0.005 200 5 1 -2.13163e-18 
0.00375 -8.83342e-17 5.68434e-14 0.0025 1 1 2.5 0.005 201 4 1 -2.13163e-18 
0.00625 -3.3244e-16 1.7053e-13 0.0025 1 1 2.5 0.005 202 5 1 7.54965e-33 
0.00875 -1.09178e-15 -1.19315e-27 0.0025 1 1 2.5 0.005 203 3 1 0 
0.01125 -7.33235e-16 2.84217e-13 0.0025 1 1 2.5 0.005 204 4 1 3.19744e-18 
0.01375 1.06154e-15 -1.13687e-13 0.0025 1 1 2.5 0.005 205 5 1 -4.9738e-18 
0.01625 5.92996e-16 4.54747e-13 0.0025 1 1 2.5 0.005 206 5 1 -7.10543e-19 
0.01875 -2.76983e-16 -1.13687e-13 0.0025 1 1 2.5 0.005 207 4 1 3.55271e-19 
0.02125 -1.36998e-15 -2.27374e-13 0.0025 1 1 2.5 0.005 208 3 1 3.55271e-18 
0.02375 9.2293e-16 -1.13687e-13 0.0025 1 1 2.5 0.005 209 3 1 2.4869e-18 
0.02625 1.25658e-15 3.41061e-13 0.0025 1 1 2.5 0.005 210 5 1 -1.13687e-17 
0.02875 2.21028e-16 3.97904e-13 0.0025 1 1 2.5 0.005 211 4 1 1.77636e-18 
0.03125 4.99337e-15 -5.68434e-13 0.0025 1 1 2.5 0.005 212 3 1 7.81597e-18 
0.03375 3.78626e-15 -3.97904e-13 0.0025 1 1 2.5 0.005 213 4 1 3.55271e-19 
0.03625 4.79711e-15 4.54747e-13 0.0025 1 1 2.5 0.005 214 5 1 -1.74083e-17 
0.03875 3.47348e-15 2.84217e-13 0.0025 1 1 2.5 0.005 215 4 1 1.77636e-17 
0.04125 3.69828e-15 -1.13687e-13 0.0025 1 1 2.5 0.005 216 4 1 -1.24345e-17 
0.04375 3.57939e-15 5.68434e-14 0.0025 1 1 2.5 0.005 217 4 1 -7.10543e-18 
0.04625 2.62858e-16 -1.81899e-12 0.0025 1 1 2.5 0.005 218 3 1 2.02505e-17 
0.04875 5.85237e-15 1.19371e-12 0.0025 1 1 2.5 0.005 219 4 1 -1.45661e-17 
0.05125 3.25747e-15 6.82121e-13 0.0025 1 1 2.5 0.005 220 5 1 -5.68434e-18 
0.05375 2.30954e-15 1.7053e-13 0.0025 1 1 2.5 0.005 221 3 1 1.49214e-17 
0.05625 3.57342e-15 8.52651e-13 0.0025 1 1 2.5 0.005 222 5 1 9.23706e-18 
0.05875 1.38864e-15 -1.7053e-13 0.0025 1 1 2.5 0.005 223 5 1 -6.46594e-17 
0.06125 2.91169e-15 -2.72848e-12 0.0025 1 1 2.5 0.005 224 3 1 6.46594e-17 
0.06375 5.13583e-15 1.08002e-12 0.0025 1 1 2.5 0.005 225 3 1 -3.55271e-18 
0.06625 7.07701e-16 5.11591e-13 0.0025 1 1 2.5 0.005 226 5 1 -2.66454e-17 
0.06875 4.58343e-15 -2.27374e-13 0.0025 1 1 2.5 0.005 227 5 1 1.88294e-17 
0.07125 9.75614e-16 -1.13687e-13 0.0025 1 1 2.5 0.005 228 5 1 -1.52767e-17 
0.07375 3.7276e-15 -1.13687e-13 0.0025 1 1 2.5 0.005 229 5 1 8.88178e-18 
0.07625 3.72781e-15 4.48416e-44 0.0025 1 1 2.5 0.005 230 5 1 -1.35003e-17 
