# Time [s]: 0.231014
# Columns: pos [m], vel [m/s], acc [m/s^2], mass [kg], dens [kg/m^3], pres [Pa], ene [J/kg], sml [m], id, neighbor, alpha, gradh, ...additional?
1.34673 -0.673142 0.00106762 0.0025 0.511019 0.432689 2.15245 0.00978438 0 4 1 -0.000134226 
1.35151 -0.673148 0.00111154 0.0025 0.536872 0.42615 1.94999 0.00931321 1 4 1 0.000179246 
1.35605 -0.673155 0.00115018 0.0025 0.548199 0.430817 1.96845 0.00912078 2 3 1 -1.90585e-05 
1.36064 -0.673162 0.00119548 0.0025 0.545932 0.42915 1.96459 0.00915866 3 5 1 3.4861e-06 
1.36521 -0.67317 0.00126197 0.0025 0.546327 0.429302 1.96452 0.00915203 4 4 1 -1.38852e-07 
1.36979 -0.673178 0.00136406 0.0025 0.546335 0.429269 1.96428 0.00915189 5 4 1 1.43432e-07 
1.37436 -0.673187 0.00150886 0.0025 0.546355 0.429264 1.96422 0.00915156 6 4 1 -3.92159e-09 
1.37894 -0.673197 0.00169305 0.0025 0.546365 0.429258 1.96415 0.00915139 7 4 1 7.71727e-09 
1.38351 -0.673207 0.00190543 0.0025 0.546375 0.429253 1.96409 0.00915122 8 4 1 4.17003e-09 
1.38809 -0.673218 0.00213249 0.0025 0.546383 0.429247 1.96404 0.00915109 9 4 1 4.83639e-09 
1.39267 -0.673229 0.00236374 0.0025 0.54639 0.429242 1.96399 0.00915098 10 4 1 -2.90177e-09 
1.39724 -0.673241 0.00259701 0.0025 0.546395 0.429235 1.96394 0.00915088 11 4 1 4.04377e-09 
1.40182 -0.673253 0.00284401 0.0025 0.546399 0.429228 1.96389 0.00915082 12 4 1 2.11219e-09 
1.40639 -0.673267 0.00312902 0.0025 0.546402 0.42922 1.96385 0.00915078 13 4 1 2.72547e-09 
1.41097 -0.673282 0.0034714 0.0025 0.546402 0.429212 1.96381 0.00915077 14 3 1 1.13336e-09 
1.41554 -0.673297 0.00385926 0.0025 0.546401 0.429202 1.96377 0.00915078 15 4 1 -2.66991e-09 
1.42012 -0.673314 0.00424433 0.0025 0.546399 0.429192 1.96373 0.00915082 16 4 1 3.81395e-09 
1.42469 -0.673332 0.00458263 0.0025 0.546395 0.42918 1.96369 0.00915088 17 4 1 4.62611e-10 
1.42927 -0.673353 0.00489673 0.0025 0.54639 0.429168 1.96365 0.00915097 18 4 1 -2.22417e-09 
1.43384 -0.673375 0.00528952 0.0025 0.546384 0.429154 1.96361 0.00915108 19 4 1 1.42825e-09 
1.43842 -0.673401 0.00586483 0.0025 0.546376 0.429139 1.96357 0.00915121 20 4 1 -5.40193e-10 
1.443 -0.673428 0.00661446 0.0025 0.546366 0.429123 1.96353 0.00915138 21 4 1 -9.13239e-10 
1.44757 -0.673458 0.00740302 0.0025 0.546354 0.429105 1.96349 0.00915158 22 4 1 -1.17187e-09 
1.45215 -0.673491 0.00810527 0.0025 0.546339 0.429084 1.96345 0.00915182 23 4 1 -2.32166e-09 
1.45672 -0.673528 0.0087722 0.0025 0.546323 0.429062 1.96341 0.0091521 24 4 1 -7.58343e-10 
1.4613 -0.67357 0.00963019 0.0025 0.546304 0.429037 1.96336 0.00915241 25 4 1 -2.06389e-09 
1.46588 -0.673618 0.0108727 0.0025 0.546283 0.42901 1.96331 0.00915277 26 4 1 -4.08557e-09 
1.47045 -0.67367 0.0124482 0.0025 0.546258 0.428979 1.96326 0.00915318 27 4 1 -3.29649e-09 
1.47503 -0.673728 0.0141077 0.0025 0.546229 0.428944 1.96321 0.00915367 28 4 1 -3.99036e-09 
1.47961 -0.673793 0.0157097 0.0025 0.546196 0.428904 1.96314 0.00915422 29 4 1 -5.76196e-09 
1.48418 -0.673867 0.0174241 0.0025 0.546158 0.42886 1.96308 0.00915485 30 4 1 -5.00837e-09 
1.48876 -0.673952 0.019557 0.0025 0.546116 0.42881 1.963 0.00915557 31 4 1 -4.65697e-09 
1.49334 -0.674048 0.0222424 0.0025 0.546067 0.428754 1.96292 0.00915638 32 4 1 -8.82915e-09 
1.49792 -0.674156 0.0253835 0.0025 0.546012 0.428691 1.96283 0.00915731 33 4 1 -9.8974e-09 
-0.497504 -0.674277 0.0288023 0.0025 0.545949 0.428619 1.96273 0.00915837 34 4 1 -7.55081e-09 
-0.492925 -0.674413 0.0323861 0.0025 0.545877 0.428538 1.96261 0.00915957 35 4 1 -9.95269e-09 
-0.488345 -0.674565 0.0360549 0.0025 0.545797 0.428448 1.96249 0.00916092 36 4 1 -1.00263e-08 
-0.483764 -0.674733 0.0395595 0.0025 0.545709 0.428349 1.96235 0.00916239 37 4 1 -6.06461e-09 
-0.479182 -0.674918 0.0426029 0.0025 0.545614 0.428243 1.96221 0.00916399 38 4 1 -4.43588e-09 
-0.4746 -0.675116 0.0448364 0.0025 0.545515 0.428133 1.96206 0.00916565 39 4 1 -7.2677e-10 
-0.470016 -0.675318 0.0456551 0.0025 0.545415 0.428022 1.96191 0.00916732 40 4 1 6.88345e-09 
-0.465432 -0.675512 0.0448688 0.0025 0.54532 0.427916 1.96176 0.00916892 41 4 1 1.55759e-08 
-0.460848 -0.675678 0.0395181 0.0025 0.545237 0.427824 1.96164 0.00917032 42 4 1 2.4747e-08 
-0.456262 -0.675802 0.0274811 0.0025 0.545175 0.427755 1.96154 0.00917136 43 4 1 4.37268e-08 
-0.451676 -0.675908 0.0185328 0.0025 0.54515 0.427728 1.96149 0.00917179 44 5 1 1.09943e-07 
-0.44709 -0.675817 -0.0562141 0.0025 0.545214 0.427796 1.96158 0.00917072 45 4 1 1.0015e-07 
-0.442505 -0.675571 -0.0399614 0.0025 0.545362 0.427964 1.96179 0.00916822 46 4 1 2.42594e-07 
-0.437922 -0.675117 -0.182881 0.0025 0.545713 0.428369 1.96228 0.00916232 47 4 1 8.15049e-07 
-0.433343 -0.673412 -0.616325 0.0025 0.546692 0.429458 1.96368 0.00914592 48 4 1 1.30542e-06 
-0.428776 -0.669671 -1.06496 0.0025 0.548588 0.431538 1.9664 0.00911431 49 4 1 1.30073e-06 
-0.424229 -0.664492 -1.31561 0.0025 0.551269 0.434487 1.97024 0.00906998 50 4 1 1.32714e-06 
-0.419706 -0.658247 -1.59832 0.0025 0.554607 0.438182 1.97499 0.00901539 51 4 1 1.82769e-06 
-0.415213 -0.650505 -2.04255 0.0025 0.558766 0.442799 1.9809 0.00894828 52 4 1 2.47211e-06 
-0.410758 -0.640786 -2.54332 0.0025 0.563933 0.448544 1.98821 0.0088663 53 4 1 2.98158e-06 
-0.406347 -0.629176 -3.02776 0.0025 0.570125 0.455448 1.99691 0.00877 54 4 1 3.19706e-06 
-0.401987 -0.615989 -3.37137 0.0025 0.577171 0.463332 2.00675 0.00866295 55 4 1 3.07045e-06 
-0.397683 -0.601967 -3.54682 0.0025 0.584756 0.471865 2.01725 0.00855058 56 4 1 2.79484e-06 
-0.393436 -0.587725 -3.60635 0.0025 0.592585 0.480723 2.02801 0.00843761 57 4 1 2.5372e-06 
-0.389245 -0.573559 -3.61367 0.0025 0.600465 0.489687 2.03875 0.00832689 58 4 1 2.23543e-06 
-0.385109 -0.559745 -3.53203 0.0025 0.608244 0.498585 2.04927 0.00822039 59 4 1 1.98948e-06 
-0.381025 -0.54644 -3.4626 0.0025 0.615838 0.507319 2.05946 0.00811902 60 4 1 1.824e-06 
-0.37699 -0.533602 -3.3777 0.0025 0.623234 0.515866 2.06932 0.00802267 61 4 1 1.64854e-06 
-0.373002 -0.521283 -3.27879 0.0025 0.630412 0.524204 2.07881 0.00793132 62 4 1 1.58373e-06 
-0.369058 -0.509403 -3.2307 0.0025 0.637414 0.532376 2.08801 0.00784419 63 4 1 1.61427e-06 
-0.365157 -0.497777 -3.21835 0.0025 0.644327 0.54048 2.09704 0.00776004 64 4 1 1.71629e-06 
-0.361298 -0.486241 -3.27112 0.0025 0.651253 0.548636 2.10602 0.00767751 65 4 1 1.87948e-06 
-0.35748 -0.47456 -3.3742 0.0025 0.658305 0.556975 2.11511 0.00759526 66 4 1 2.0419e-06 
-0.353702 -0.462625 -3.51038 0.0025 0.665565 0.565593 2.1244 0.00751242 67 4 1 2.14747e-06 
-0.349967 -0.450406 -3.63764 0.0025 0.673056 0.574526 2.13393 0.0074288 68 4 1 2.23008e-06 
-0.346273 -0.437931 -3.78031 0.0025 0.68078 0.583773 2.14369 0.00734452 69 4 1 2.19018e-06 
-0.342622 -0.425282 -3.83209 0.0025 0.68867 0.593263 2.15359 0.00726038 70 4 1 2.12572e-06 
-0.339013 -0.412611 -3.89754 0.0025 0.696655 0.602915 2.16355 0.00717715 71 4 1 2.12449e-06 
-0.335445 -0.399883 -3.95706 0.0025 0.704728 0.612716 2.17354 0.00709493 72 4 1 2.05325e-06 
-0.331918 -0.387225 -3.97425 0.0025 0.712843 0.622613 2.18351 0.00701416 73 4 1 1.96705e-06 
-0.32843 -0.374702 -3.98153 0.0025 0.720955 0.632553 2.19342 0.00693524 74 4 1 1.92557e-06 
-0.324982 -0.362279 -3.99965 0.0025 0.729059 0.642528 2.20324 0.00685816 75 4 1 1.88219e-06 
-0.321572 -0.35003 -4.00529 0.0025 0.737151 0.652533 2.21299 0.00678287 76 4 1 1.83613e-06 
-0.318199 -0.337877 -4.01605 0.0025 0.745225 0.66256 2.22265 0.00670938 77 4 1 1.80978e-06 
-0.314862 -0.325839 -4.03422 0.0025 0.753289 0.672617 2.23224 0.00663756 78 4 1 1.7382e-06 
-0.311561 -0.313985 -4.01444 0.0025 0.76132 0.682677 2.24172 0.00656754 79 4 1 1.69743e-06 
-0.308295 -0.302249 -4.02987 0.0025 0.769318 0.692738 2.25111 0.00649926 80 4 1 1.68315e-06 
-0.305062 -0.290655 -4.03656 0.0025 0.777302 0.702823 2.26042 0.00643251 81 4 1 1.64666e-06 
-0.301862 -0.279187 -4.04674 0.0025 0.785268 0.712927 2.26966 0.00636725 82 4 1 1.62249e-06 
-0.298694 -0.267781 -4.06191 0.0025 0.793224 0.723057 2.27883 0.00630339 83 4 1 1.56048e-06 
-0.295558 -0.256568 -4.04373 0.0025 0.801148 0.733189 2.28791 0.00624104 84 4 1 1.52994e-06 
-0.292453 -0.245427 -4.06134 0.0025 0.809042 0.743322 2.29689 0.00618015 85 4 1 1.49742e-06 
-0.289378 -0.234472 -4.0473 0.0025 0.816909 0.753461 2.3058 0.00612063 86 4 1 1.47189e-06 
-0.286332 -0.223577 -4.0671 0.0025 0.824755 0.76361 2.31463 0.00606241 87 4 1 1.47388e-06 
-0.283315 -0.212817 -4.08604 0.0025 0.832599 0.773797 2.32341 0.00600529 88 4 1 1.43008e-06 
-0.280327 -0.202092 -4.08521 0.0025 0.84043 0.784002 2.33213 0.00594934 89 4 1 1.36076e-06 
-0.277366 -0.191582 -4.06226 0.0025 0.848216 0.79419 2.34074 0.00589472 90 4 1 1.36966e-06 
-0.274432 -0.181098 -4.10093 0.0025 0.855983 0.804387 2.34929 0.00584124 91 4 1 1.27196e-06 
-0.271525 -0.17083 -4.01399 0.0025 0.863692 0.814549 2.35773 0.0057891 92 4 1 1.34294e-06 
-0.268643 -0.160635 -4.14487 0.0025 0.871404 0.82475 2.36613 0.00573787 93 4 1 1.31441e-06 
-0.265787 -0.150384 -4.06688 0.0025 0.879127 0.834998 2.37449 0.00568746 94 4 1 1.20512e-06 
-0.262955 -0.140468 -4.08484 0.0025 0.886788 0.845207 2.38274 0.00563833 95 4 1 1.3272e-06 
-0.260148 -0.130391 -4.17745 0.0025 0.894489 0.855494 2.391 0.00558978 96 4 1 1.08442e-06 
-0.257365 -0.120588 -3.96173 0.0025 0.902084 0.865678 2.3991 0.00554272 97 4 1 1.09566e-06 
-0.254605 -0.111126 -4.08153 0.0025 0.909586 0.875786 2.40706 0.005497 98 4 1 1.33464e-06 
-0.251868 -0.10127 -4.19583 0.0025 0.917208 0.886065 2.41511 0.00545133 99 4 1 9.59057e-07 
-0.249154 -0.0918431 -3.89148 0.0025 0.924693 0.896204 2.42297 0.0054072 100 4 1 1.0571e-06 
-0.246461 -0.0826983 -4.1219 0.0025 0.932112 0.906305 2.43072 0.00536416 101 4 1 1.46922e-06 
-0.24379 -0.0728833 -4.37303 0.0025 0.939793 0.916757 2.43873 0.00532032 102 4 1 7.95085e-07 
-0.241141 -0.0635488 -3.81356 0.0025 0.947237 0.926922 2.44643 0.00527851 103 4 1 4.66698e-07 
-0.238511 -0.0552855 -3.67089 0.0025 0.954208 0.936514 2.4536 0.00523995 104 4 1 1.24507e-06 
-0.235901 -0.0465411 -4.18645 0.0025 0.961388 0.94641 2.46097 0.00520081 105 4 1 1.52475e-06 
-0.23331 -0.0370328 -4.42126 0.0025 0.968991 0.956881 2.46876 0.00516001 106 4 1 7.16889e-07 
-0.23074 -0.0278944 -3.86534 0.0025 0.976318 0.966981 2.47623 0.00512128 107 4 1 -4.53016e-07 
-0.228189 -0.0206705 -2.69058 0.0025 0.982547 0.975655 2.48248 0.00508882 108 4 1 7.84568e-07 
-0.225652 -0.0140722 -3.86995 0.0025 0.988791 0.984453 2.48874 0.00505668 109 4 1 3.42279e-06 
-0.223132 -0.00339365 -6.08376 0.0025 0.997031 0.995892 2.49714 0.00501489 110 4 1 3.99634e-07 
-0.220637 0.00725596 -3.43137 0.0025 1.00477 1.00653 2.50493 0.00497625 111 4 1 -4.22723e-06 
-0.218156 0.0100897 0.663187 0.0025 1.00814 1.01136 2.50811 0.00495961 112 4 1 -2.67073e-07 
-0.215677 0.010958 -2.5217 0.0025 1.01081 1.01537 2.51069 0.00494653 113 4 1 5.43937e-06 
-0.213209 0.0211811 -6.57645 0.0025 1.01787 1.02516 2.51789 0.00491223 114 4 1 1.03155e-07 
-0.210765 0.0308441 -2.42255 0.0025 1.02473 1.03459 2.52472 0.00487936 115 4 1 -4.68568e-06 
-0.20833 0.0319774 0.442772 0.0025 1.02646 1.03712 2.52633 0.00487112 116 3 1 -2.36569e-06 
-0.205894 0.0302497 1.08547 0.0025 1.02515 1.03536 2.52501 0.00487736 117 4 1 -5.73897e-07 
-0.203453 0.0277567 1.28384 0.0025 1.02304 1.0324 2.52292 0.00488742 118 4 1 -1.14584e-07 
-0.201006 0.0250139 1.35668 0.0025 1.02068 1.02908 2.52058 0.00489871 119 4 1 1.54899e-08 
-0.198554 0.0221524 1.40027 0.0025 1.01822 1.02561 2.51815 0.00491054 120 4 1 7.17912e-08 
-0.196096 0.0192245 1.42294 0.0025 1.01572 1.02209 2.51567 0.00492262 121 4 1 1.23575e-07 
-0.193631 0.0162884 1.4153 0.0025 1.01324 1.0186 2.5132 0.00493467 122 4 1 1.84921e-07 
-0.191161 0.0134282 1.36362 0.0025 1.01085 1.01524 2.51082 0.00494633 123 4 1 2.46483e-07 
-0.188685 0.0107433 1.26296 0.0025 1.00863 1.01212 2.50862 0.0049572 124 4 1 2.93954e-07 
-0.186204 0.00832762 1.11949 0.0025 1.00666 1.00935 2.50665 0.00496692 125 4 1 3.16977e-07 
-0.183718 0.00624905 0.948291 0.0025 1.00498 1.00699 2.50497 0.00497524 126 4 1 3.13059e-07 
-0.181228 0.00453902 0.768024 0.0025 1.0036 1.00506 2.50359 0.00498206 127 4 1 2.86695e-07 
-0.178736 0.00319217 0.595733 0.0025 1.00253 1.00355 2.50252 0.0049874 128 4 1 2.46082e-07 
-0.176241 0.0021746 0.443529 0.0025 1.00172 1.00241 2.50171 0.00499143 129 4 1 1.99741e-07 
-0.173744 0.00143554 0.317644 0.0025 1.00113 1.00159 2.50113 0.00499435 130 4 1 1.54389e-07 
-0.171247 0.000918499 0.219241 0.0025 1.00072 1.00102 2.50072 0.00499639 131 4 1 1.14232e-07 
-0.168748 0.000569523 0.146038 0.0025 1.00045 1.00063 2.50045 0.00499776 132 4 1 8.12005e-08 
-0.166249 0.000342051 0.0939538 0.0025 1.00027 1.00038 2.50027 0.00499866 133 4 1 5.55841e-08 
-0.163749 0.000198794 0.0583911 0.0025 1.00016 1.00022 2.50016 0.00499922 134 4 1 3.66878e-08 
-0.16125 0.00011164 0.0350407 0.0025 1.00009 1.00012 2.50009 0.00499956 135 4 1 2.33595e-08 
-0.15875 6.04576e-05 0.0202829 0.0025 1.00005 1.00007 2.50005 0.00499976 136 4 1 1.43434e-08 
-0.15625 3.14845e-05 0.0113047 0.0025 1.00002 1.00004 2.50002 0.00499988 137 4 1 8.48558e-09 
-0.15375 1.57086e-05 0.0060515 0.0025 1.00001 1.00002 2.50001 0.00499994 138 4 1 4.82902e-09 
-0.15125 7.47063e-06 0.00310021 0.0025 1.00001 1.00001 2.50001 0.00499997 139 4 1 2.63731e-09 
-0.14875 3.36246e-06 0.00151244 0.0025 1 1 2.5 0.00499999 140 4 1 1.37768e-09 
-0.14625 1.4174e-06 0.000697624 0.0025 1 1 2.5 0.00499999 141 4 1 6.8515e-10 
-0.14375 5.50535e-07 0.000301 0.0025 1 1 2.5 0.005 142 4 1 3.22224e-10 
-0.14125 1.91628e-07 0.000119401 0.0025 1 1 2.5 0.005 143 4 1 1.41875e-10 
-0.13875 5.6596e-08 4.22115e-05 0.0025 1 1 2.5 0.005 144 4 1 5.75524e-11 
-0.13625 1.23159e-08 1.24347e-05 0.0025 1 1 2.5 0.005 145 4 1 2.08461e-11 
-0.13375 8.75293e-10 2.61816e-06 0.0025 1 1 2.5 0.005 146 4 1 6.58966e-12 
-0.13125 -3.31536e-10 -6.3278e-07 0.0025 1 1 2.5 0.005 147 5 1 1.32024e-12 
-0.12875 5.87194e-10 -2.51154e-07 0.0025 1 1 2.5 0.005 148 4 1 -3.43402e-13 
-0.12625 6.29627e-10 5.72492e-08 0.0025 1 1 2.5 0.005 149 3 1 -1.62171e-13 
-0.12375 4.24462e-10 1.15885e-07 0.0025 1 1 2.5 0.005 150 4 1 9.76321e-15 
-0.12125 2.29299e-10 8.62066e-08 0.0025 1 1 2.5 0.005 151 4 1 4.45599e-14 
-0.11875 1.054e-10 4.94274e-08 0.0025 1 1 2.5 0.005 152 4 1 3.72566e-14 
-0.11625 4.13873e-11 2.35224e-08 0.0025 1 1 2.5 0.005 153 4 1 2.23302e-14 
-0.11375 1.34268e-11 9.45039e-09 0.0025 1 1 2.5 0.005 154 4 1 1.1001e-14 
-0.11125 3.22064e-12 3.07659e-09 0.0025 1 1 2.5 0.005 155 4 1 4.5258e-15 
-0.10875 3.23347e-13 7.03153e-10 0.0025 1 1 2.5 0.005 156 4 1 1.55289e-15 
-0.10625 -1.1473e-13 -6.19593e-11 0.0025 1 1 2.5 0.005 157 5 1 3.52784e-16 
-0.10375 6.49338e-14 -6.65068e-11 0.0025 1 1 2.5 0.005 158 4 1 -4.29878e-17 
-0.10125 9.10708e-14 7.27596e-12 0.0025 1 1 2.5 0.005 159 3 1 -3.6593e-17 
-0.09875 5.80272e-14 2.10889e-11 0.0025 1 1 2.5 0.005 160 4 1 2.4869e-18 
-0.09625 2.76988e-14 1.1255e-11 0.0025 1 1 2.5 0.005 161 4 1 5.68434e-18 
-0.09375 7.4904e-15 9.54969e-12 0.0025 1 1 2.5 0.005 162 4 1 7.81597e-18 
-0.09125 -1.2367e-15 9.66338e-13 0.0025 1 1 2.5 0.005 163 5 1 3.19744e-18 
-0.08875 -1.74162e-15 -2.27374e-13 0.0025 1 1 2.5 0.005 164 5 1 -1.42109e-18 
-0.08625 -1.8106e-15 -2.27374e-13 0.0025 1 1 2.5 0.005 165 5 1 -1.42109e-18 
-0.08375 -2.33213e-15 8.96831e-44 0.0025 1 1 2.5 0.005 166 5 1 -1.42109e-18 
-0.08125 -8.27744e-16 -1.13687e-13 0.0025 1 1 2.5 0.005 167 5 1 -3.90799e-18 
-0.07875 -3.5061e-15 -1.13687e-13 0.0025 1 1 2.5 0.005 168 5 1 6.75016e-18 
-0.07625 -5.81957e-16 1.13687e-13 0.0025 1 1 2.5 0.005 169 5 1 -1.35003e-17 
-0.07375 -5.18261e-16 1.7053e-13 0.0025 1 1 2.5 0.005 170 5 1 8.88178e-18 
-0.07125 1.00118e-15 5.68434e-14 0.0025 1 1 2.5 0.005 171 5 1 -1.20792e-17 
-0.06875 -4.33381e-17 3.9443e-29 0.0025 1 1 2.5 0.005 172 5 1 1.10134e-17 
-0.06625 2.0333e-15 -7.10961e-27 0.0025 1 1 2.5 0.005 173 5 1 -1.59872e-17 
-0.06375 1.21316e-15 -1.66252e-26 0.0025 1 1 2.5 0.005 174 4 1 -2.13163e-18 
-0.06125 -1.46734e-15 -5.68434e-14 0.0025 1 1 2.5 0.005 175 3 1 3.12639e-17 
-0.05875 1.38184e-15 1.7053e-13 0.0025 1 1 2.5 0.005 176 4 1 -2.62901e-17 
-0.05625 -2.79032e-16 1.13687e-13 0.0025 1 1 2.5 0.005 177 5 1 2.84217e-18 
-0.05375 1.08177e-15 5.68434e-14 0.0025 1 1 2.5 0.005 178 4 1 3.55271e-19 
-0.05125 -2.31806e-16 1.38051e-27 0.0025 1 1 2.5 0.005 179 5 1 -1.06581e-18 
-0.04875 2.89837e-15 -1.56945e-43 0.0025 1 1 2.5 0.005 180 5 1 -3.90799e-18 
-0.04625 2.15603e-15 -2.27374e-13 0.0025 1 1 2.5 0.005 181 5 1 3.55271e-19 
-0.04375 1.93141e-16 -2.27374e-13 0.0025 1 1 2.5 0.005 182 5 1 -2.84217e-18 
-0.04125 -1.90547e-15 -3.41061e-13 0.0025 1 1 2.5 0.005 183 5 1 3.55271e-19 
-0.03875 -2.38645e-15 2.84217e-13 0.0025 1 1 2.5 0.005 184 5 1 -1.10134e-17 
-0.03625 -4.11589e-15 1.02318e-12 0.0025 1 1 2.5 0.005 185 4 1 -1.06581e-18 
-0.03375 1.71883e-15 -7.95808e-13 0.0025 1 1 2.5 0.005 186 4 1 -6.75016e-18 
-0.03125 -7.58966e-16 -2.27374e-13 0.0025 1 1 2.5 0.005 187 3 1 4.33431e-17 
-0.02875 -2.64621e-15 2.07569e-26 0.0025 1 1 2.5 0.005 188 4 1 -3.58824e-17 
-0.02625 -2.38356e-15 7.38964e-13 0.0025 1 1 2.5 0.005 189 5 1 8.52651e-18 
-0.02375 -1.45359e-15 2.84217e-13 0.0025 1 1 2.5 0.005 190 3 1 -3.55271e-19 
-0.02125 -2.26731e-15 1.7053e-13 0.0025 1 1 2.5 0.005 191 4 1 4.26326e-18 
-0.01875 -1.23401e-15 -5.11591e-13 0.0025 1 1 2.5 0.005 192 5 1 -7.10543e-18 
-0.01625 -2.28573e-15 -1.13687e-13 0.0025 1 1 2.5 0.005 193 4 1 1.42109e-18 
-0.01375 5.37258e-17 2.27374e-13 0.0025 1 1 2.5 0.005 194 3 1 2.84217e-18 
-0.01125 3.30763e-16 2.27374e-13 0.0025 1 1 2.5 0.005 195 4 1 -1.77636e-18 
-0.00875 -1.45591e-15 -2.27374e-13 0.0025 1 1 2.5 0.005 196 5 1 7.10543e-19 
-0.00625 -3.60146e-16 -3.41061e-13 0.0025 1 1 2.5 0.005 197 4 1 -7.10543e-19 
-0.00375 -1.33592e-16 2.27374e-13 0.0025 1 1 2.5 0.005 198 4 1 1.42109e-18 
-0.00125 -2.97896e-16 -5.68434e-14 0.0025 1 1 2.5 0.005 199 5 1 -1.42109e-18 
0.00125 -1.47372e-16 -1.13687e-13 0.0025 1 1 2.5 0.005 200 5 1 5.00742e-33 
0.00375 3.36221e-17 1.2819e-28 0.0025 1 1 2.5 0.005 201 4 1 -2.13163e-18 
0.00625 -2.10483e-16 -1.13687e-13 0.0025 1 1 2.5 0.005 202 5 1 7.54965e-33 
0.00875 -1.12663e-15 -1.19315e-27 0.0025 1 1 2.5 0.005 203 3 1 -3.55271e-19 
0.01125 -2.10601e-16 2.84217e-13 0.0025 1 1 2.5 0.005 204 4 1 2.84217e-18 
0.01375 1.20091e-15 1.13687e-13 0.0025 1 1 2.5 0.005 205 5 1 -4.9738e-18 
0.01625 8.71732e-16 1.13687e-13 0.0025 1 1 2.5 0.005 206 5 1 -3.55271e-19 
0.01875 -3.29245e-16 -5.68434e-14 0.0025 1 1 2.5 0.005 207 4 1 3.55271e-19 
0.02125 -1.70099e-15 -1.7053e-13 0.0025 1 1 2.5 0.005 208 3 1 3.90799e-18 
0.02375 5.39669e-16 -2.27374e-13 0.0025 1 1 2.5 0.005 209 3 1 2.4869e-18 
0.02625 2.04052e-15 5.11591e-13 0.0025 1 1 2.5 0.005 210 5 1 -1.27898e-17 
0.02875 1.24887e-15 5.68434e-13 0.0025 1 1 2.5 0.005 211 4 1 3.55271e-18 
0.03125 3.80874e-15 -6.82121e-13 0.0025 1 1 2.5 0.005 212 3 1 8.52651e-18 
0.03375 2.79326e-15 -5.68434e-13 0.0025 1 1 2.5 0.005 213 4 1 -7.10543e-19 
0.03625 5.54622e-15 3.97904e-13 0.0025 1 1 2.5 0.005 214 5 1 -1.74083e-17 
0.03875 3.94387e-15 1.13687e-13 0.0025 1 1 2.5 0.005 215 4 1 1.77636e-17 
0.04125 3.3847e-15 -1.13687e-13 0.0025 1 1 2.5 0.005 216 4 1 -1.20792e-17 
0.04375 3.37033e-15 -1.7053e-13 0.0025 1 1 2.5 0.005 217 4 1 -7.81597e-18 
0.04625 5.93808e-16 6.25278e-13 0.0025 1 1 2.5 0.005 218 3 1 1.74083e-17 
0.04875 2.92549e-15 -5.68434e-14 0.0025 1 1 2.5 0.005 219 5 1 -8.88178e-18 
0.05125 5.5226e-15 -2.50111e-12 0.0025 1 1 2.5 0.005 220 4 1 -8.88178e-18 
0.05375 3.80752e-15 3.0127e-12 0.0025 1 1 2.5 0.005 221 3 1 1.74083e-17 
0.05625 4.46197e-15 -1.13687e-13 0.0025 1 1 2.5 0.005 222 5 1 1.03029e-17 
0.05875 1.07508e-15 -3.97904e-13 0.0025 1 1 2.5 0.005 223 5 1 -6.89226e-17 
0.06125 -1.51336e-15 -1.7053e-12 0.0025 1 1 2.5 0.005 224 3 1 6.85674e-17 
0.06375 6.79088e-15 5.68434e-13 0.0025 1 1 2.5 0.005 225 3 1 -4.61853e-18 
0.06625 1.77039e-15 5.68434e-13 0.0025 1 1 2.5 0.005 226 5 1 -2.77112e-17 
0.06875 4.20016e-15 -1.13687e-13 0.0025 1 1 2.5 0.005 227 5 1 1.91847e-17 
0.07125 7.14303e-16 -1.7053e-13 0.0025 1 1 2.5 0.005 228 5 1 -1.52767e-17 
0.07375 3.65792e-15 -1.13687e-13 0.0025 1 1 2.5 0.005 229 5 1 8.88178e-18 
