# Time [s]: 0.237145
# Columns: pos [m], vel [m/s], acc [m/s^2], mass [kg], dens [kg/m^3], pres [Pa], ene [J/kg], sml [m], id, neighbor, alpha, gradh, ...additional?
1.34261 -0.673136 0.00088815 0.0025 0.511022 0.432693 2.15245 0.00978431 0 4 1 -0.000134225 
1.34739 -0.673142 0.000915478 0.0025 0.536876 0.426155 1.94999 0.00931313 1 4 1 0.000179247 
1.35193 -0.673148 0.000952326 0.0025 0.548204 0.430822 1.96845 0.00912069 2 3 1 -1.90585e-05 
1.35651 -0.673155 0.00101333 0.0025 0.545937 0.429155 1.96459 0.00915857 3 5 1 3.48595e-06 
1.36108 -0.673162 0.00110837 0.0025 0.546333 0.429308 1.96453 0.00915193 4 4 1 -1.38923e-07 
1.36566 -0.67317 0.00123967 0.0025 0.546341 0.429276 1.96429 0.00915179 5 4 1 1.43367e-07 
1.37024 -0.673178 0.00140092 0.0025 0.546362 0.429271 1.96423 0.00915145 6 4 1 -3.954e-09 
1.37481 -0.673187 0.00158071 0.0025 0.546372 0.429265 1.96416 0.00915128 7 4 1 7.73618e-09 
1.37939 -0.673196 0.00176763 0.0025 0.546382 0.429261 1.9641 0.0091511 8 4 1 4.23981e-09 
1.38396 -0.673205 0.00195546 0.0025 0.546391 0.429256 1.96405 0.00915096 9 4 1 4.93812e-09 
1.38854 -0.673215 0.00214792 0.0025 0.546398 0.42925 1.964 0.00915085 10 4 1 -2.80271e-09 
1.39311 -0.673225 0.00235965 0.0025 0.546404 0.429244 1.96395 0.00915074 11 4 1 4.10561e-09 
1.39769 -0.673237 0.00260761 0.0025 0.546408 0.429238 1.96391 0.00915066 12 4 1 2.13571e-09 
1.40226 -0.673248 0.0028931 0.0025 0.546411 0.429231 1.96386 0.00915062 13 4 1 2.77045e-09 
1.40684 -0.673261 0.00319002 0.0025 0.546412 0.429223 1.96382 0.0091506 14 3 1 1.29341e-09 
1.41141 -0.673275 0.00346019 0.0025 0.546412 0.429214 1.96378 0.0091506 15 4 1 -2.36014e-09 
1.41599 -0.67329 0.00369479 0.0025 0.546411 0.429205 1.96374 0.00915062 16 4 1 4.16976e-09 
1.42057 -0.673306 0.00394385 0.0025 0.546409 0.429195 1.96371 0.00915066 17 4 1 6.7292e-10 
1.42514 -0.673325 0.00428955 0.0025 0.546405 0.429184 1.96367 0.00915072 18 4 1 -2.2475e-09 
1.42972 -0.673345 0.00476971 0.0025 0.5464 0.429172 1.96363 0.0091508 19 4 1 1.34052e-09 
1.43429 -0.673366 0.00532637 0.0025 0.546394 0.429159 1.9636 0.00915091 20 4 1 -3.66281e-10 
1.43887 -0.67339 0.00585308 0.0025 0.546385 0.429144 1.96356 0.00915105 21 4 1 -3.23831e-10 
1.44344 -0.673416 0.0063152 0.0025 0.546375 0.429128 1.96352 0.00915122 22 4 1 -4.10426e-10 
1.44802 -0.673445 0.00681795 0.0025 0.546363 0.429111 1.96349 0.00915142 23 4 1 -1.83682e-09 
1.45259 -0.673478 0.00752688 0.0025 0.54635 0.429092 1.96345 0.00915164 24 4 1 -7.15128e-10 
1.45717 -0.673515 0.00850205 0.0025 0.546335 0.429071 1.96341 0.0091519 25 4 1 -2.08104e-09 
1.46175 -0.673555 0.00962803 0.0025 0.546316 0.429047 1.96336 0.00915221 26 4 1 -3.57316e-09 
1.46632 -0.673599 0.0107441 0.0025 0.546295 0.42902 1.96332 0.00915256 27 4 1 -2.10844e-09 
1.4709 -0.673649 0.011845 0.0025 0.546271 0.42899 1.96327 0.00915297 28 4 1 -2.62972e-09 
1.47548 -0.673705 0.0131117 0.0025 0.546243 0.428956 1.96321 0.00915343 29 4 1 -4.81462e-09 
1.48005 -0.673769 0.0147337 0.0025 0.546212 0.428919 1.96315 0.00915395 30 4 1 -4.48575e-09 
1.48463 -0.673841 0.0167508 0.0025 0.546177 0.428877 1.96309 0.00915455 31 4 1 -4.06784e-09 
1.48921 -0.673922 0.0190789 0.0025 0.546136 0.428829 1.96302 0.00915524 32 4 1 -7.77497e-09 
1.49378 -0.674012 0.0216317 0.0025 0.546089 0.428775 1.96294 0.00915602 33 4 1 -8.42877e-09 
1.49836 -0.674114 0.0243885 0.0025 0.546035 0.428714 1.96285 0.00915692 34 4 1 -6.03895e-09 
-0.497059 -0.67423 0.0273562 0.0025 0.545974 0.428645 1.96275 0.00915794 35 4 1 -8.795e-09 
-0.49248 -0.674361 0.0305354 0.0025 0.545906 0.428568 1.96265 0.00915908 36 4 1 -9.74068e-09 
-0.4879 -0.674508 0.0339798 0.0025 0.545831 0.428483 1.96253 0.00916035 37 4 1 -7.54141e-09 
-0.483319 -0.674672 0.0377452 0.0025 0.545747 0.428389 1.9624 0.00916176 38 4 1 -8.5781e-09 
-0.478738 -0.67485 0.0416911 0.0025 0.545655 0.428286 1.96226 0.00916329 39 4 1 -7.93776e-09 
-0.474156 -0.675037 0.0450195 0.0025 0.545558 0.428177 1.96211 0.00916494 40 4 1 -2.10156e-09 
-0.469573 -0.675229 0.0458506 0.0025 0.545457 0.428065 1.96196 0.00916663 41 4 1 6.21982e-09 
-0.464989 -0.675421 0.0431196 0.0025 0.54536 0.427958 1.96181 0.00916825 42 4 1 1.61323e-08 
-0.460405 -0.675603 0.0372016 0.0025 0.545277 0.427866 1.96169 0.00916965 43 4 1 2.66656e-08 
-0.45582 -0.675753 0.0293936 0.0025 0.545216 0.427797 1.96159 0.00917068 44 4 1 2.14412e-08 
-0.451234 -0.675849 0.0330668 0.0025 0.545172 0.42775 1.96152 0.00917142 45 5 1 7.84555e-08 
-0.446648 -0.675868 -0.0320256 0.0025 0.545193 0.427773 1.96155 0.00917106 46 4 1 1.21151e-07 
-0.442063 -0.675615 -0.0563756 0.0025 0.545314 0.427906 1.96171 0.00916902 47 4 1 1.4543e-07 
-0.437479 -0.675282 -0.0947203 0.0025 0.545559 0.428188 1.96206 0.00916491 48 4 1 5.20532e-07 
-0.432898 -0.674276 -0.400563 0.0025 0.546217 0.42893 1.963 0.00915387 49 4 1 1.13191e-06 
-0.428325 -0.671433 -0.891105 0.0025 0.547707 0.43057 1.96513 0.00912898 50 4 1 1.34578e-06 
-0.423769 -0.6668 -1.22217 0.0025 0.550073 0.433167 1.96852 0.0090897 51 4 1 1.25806e-06 
-0.419236 -0.661012 -1.45506 0.0025 0.553114 0.436524 1.97286 0.00903973 52 4 1 1.50866e-06 
-0.414729 -0.654063 -1.80756 0.0025 0.556848 0.440665 1.97818 0.00897911 53 4 1 2.07855e-06 
-0.410256 -0.64539 -2.26327 0.0025 0.561465 0.445794 1.98472 0.00890527 54 4 1 2.64046e-06 
-0.405824 -0.634885 -2.74419 0.0025 0.567067 0.452032 1.99261 0.0088173 55 4 1 2.99773e-06 
-0.401439 -0.622673 -3.14851 0.0025 0.573585 0.459312 2.00174 0.00871711 56 4 1 3.03474e-06 
-0.397106 -0.609295 -3.40078 0.0025 0.580779 0.467383 2.01175 0.00860912 57 4 1 2.80651e-06 
-0.392829 -0.595423 -3.49699 0.0025 0.588339 0.47591 2.02218 0.0084985 58 4 1 2.56055e-06 
-0.388607 -0.581514 -3.54009 0.0025 0.596036 0.48464 2.03272 0.00838876 59 4 1 2.30443e-06 
-0.38444 -0.567776 -3.50069 0.0025 0.603712 0.493394 2.04315 0.00828209 60 4 1 2.02696e-06 
-0.380325 -0.554482 -3.42508 0.0025 0.611247 0.502032 2.0533 0.00818 61 4 1 1.84678e-06 
-0.37626 -0.541649 -3.3588 0.0025 0.618601 0.510506 2.06315 0.00808275 62 4 1 1.68688e-06 
-0.372242 -0.529266 -3.26941 0.0025 0.62576 0.518794 2.07266 0.00799029 63 4 1 1.55186e-06 
-0.368269 -0.517373 -3.19098 0.0025 0.63272 0.526891 2.08184 0.0079024 64 4 1 1.52043e-06 
-0.364339 -0.505823 -3.15364 0.0025 0.639535 0.534857 2.09078 0.00781818 65 4 1 1.56888e-06 
-0.360451 -0.494503 -3.15955 0.0025 0.646293 0.54279 2.09959 0.00773643 66 4 1 1.68386e-06 
-0.356603 -0.483209 -3.22399 0.0025 0.653094 0.550807 2.10839 0.00765587 67 4 1 1.83757e-06 
-0.352795 -0.471781 -3.33175 0.0025 0.660037 0.559024 2.11732 0.00757534 68 4 1 1.95377e-06 
-0.349027 -0.460049 -3.44367 0.0025 0.667172 0.567503 2.12645 0.00749432 69 4 1 2.05234e-06 
-0.3453 -0.448094 -3.57576 0.0025 0.674521 0.576274 2.13578 0.00741267 70 4 1 2.11843e-06 
-0.341614 -0.435849 -3.69226 0.0025 0.682082 0.585334 2.14533 0.0073305 71 4 1 2.06735e-06 
-0.337969 -0.423505 -3.74342 0.0025 0.689787 0.594608 2.15499 0.00724862 72 4 1 2.02311e-06 
-0.334365 -0.411133 -3.80645 0.0025 0.697582 0.604036 2.16469 0.00716761 73 4 1 2.01995e-06 
-0.330802 -0.398745 -3.86277 0.0025 0.70546 0.613604 2.17444 0.00708757 74 4 1 1.93362e-06 
-0.327278 -0.386411 -3.86453 0.0025 0.713366 0.62325 2.18415 0.00700902 75 4 1 1.8718e-06 
-0.323792 -0.374199 -3.88975 0.0025 0.721271 0.632939 2.19379 0.00693221 76 4 1 1.83325e-06 
-0.320345 -0.36212 -3.89357 0.0025 0.729171 0.642663 2.20337 0.00685711 77 4 1 1.77013e-06 
-0.316935 -0.350155 -3.89456 0.0025 0.737047 0.652403 2.21286 0.00678383 78 4 1 1.7606e-06 
-0.313561 -0.33834 -3.92415 0.0025 0.744917 0.662175 2.22228 0.00671216 79 4 1 1.72007e-06 
-0.310223 -0.326606 -3.92133 0.0025 0.752776 0.671974 2.23162 0.00664208 80 4 1 1.65021e-06 
-0.306919 -0.31503 -3.91677 0.0025 0.760602 0.681774 2.24087 0.00657374 81 4 1 1.62851e-06 
-0.303649 -0.3036 -3.92942 0.0025 0.768403 0.691582 2.25004 0.006507 82 4 1 1.58414e-06 
-0.300412 -0.29227 -3.91901 0.0025 0.776177 0.701398 2.25911 0.00644183 83 4 1 1.57479e-06 
-0.297207 -0.281095 -3.95058 0.0025 0.783939 0.711236 2.26812 0.00637805 84 4 1 1.5461e-06 
-0.294033 -0.269956 -3.94494 0.0025 0.791691 0.721101 2.27706 0.00631559 85 4 1 1.5012e-06 
-0.290891 -0.259005 -3.95711 0.0025 0.799421 0.730976 2.28593 0.00625452 86 4 1 1.46019e-06 
-0.287779 -0.248127 -3.94461 0.0025 0.807123 0.740853 2.29471 0.00619484 87 4 1 1.42972e-06 
-0.284696 -0.237411 -3.95623 0.0025 0.814796 0.750731 2.30341 0.00613651 88 4 1 1.40052e-06 
-0.281642 -0.22677 -3.94635 0.0025 0.822444 0.760615 2.31203 0.00607944 89 4 1 1.39393e-06 
-0.278616 -0.216277 -3.97701 0.0025 0.830081 0.770522 2.32059 0.00602351 90 4 1 1.38947e-06 
-0.275618 -0.205768 -3.98852 0.0025 0.837722 0.780467 2.32911 0.00596857 91 4 1 1.29311e-06 
-0.272648 -0.195494 -3.94474 0.0025 0.845316 0.790391 2.33753 0.00591495 92 4 1 1.33544e-06 
-0.269703 -0.185234 -4.02507 0.0025 0.852906 0.800341 2.34591 0.00586231 93 4 1 1.22796e-06 
-0.266785 -0.175131 -3.90705 0.0025 0.860445 0.810262 2.35418 0.00581095 94 4 1 1.22248e-06 
-0.263892 -0.165241 -3.99539 0.0025 0.867939 0.820164 2.36236 0.00576077 95 4 1 1.32013e-06 
-0.261024 -0.15519 -4.024 0.0025 0.875486 0.830159 2.37055 0.00571111 96 4 1 1.12762e-06 
-0.258181 -0.145427 -3.91411 0.0025 0.88296 0.8401 2.37862 0.00566277 97 4 1 1.2305e-06 
-0.255362 -0.135723 -4.07254 0.0025 0.890439 0.850082 2.38666 0.00561521 98 4 1 1.21803e-06 
-0.252566 -0.125867 -3.99641 0.0025 0.897942 0.860115 2.39469 0.00556829 99 4 1 9.23072e-07 
-0.249793 -0.116574 -3.83041 0.0025 0.905265 0.86996 2.40247 0.00552324 100 4 1 1.18246e-06 
-0.247042 -0.107244 -4.08729 0.0025 0.912616 0.879872 2.41026 0.00547875 101 4 1 1.23064e-06 
-0.244314 -0.0976321 -4.02442 0.0025 0.920064 0.889923 2.41812 0.00543441 102 4 1 7.8641e-07 
-0.241608 -0.0886299 -3.7487 0.0025 0.927283 0.899723 2.42568 0.0053921 103 4 1 1.12477e-06 
-0.238922 -0.0796655 -4.11477 0.0025 0.934537 0.909607 2.43325 0.00535024 104 4 1 1.38324e-06 
-0.236258 -0.0700615 -4.21036 0.0025 0.942044 0.919828 2.44106 0.00530761 105 4 1 6.47418e-07 
-0.233614 -0.0611181 -3.68282 0.0025 0.949237 0.929666 2.4485 0.00526739 106 4 1 5.1899e-07 
-0.23099 -0.0530033 -3.64322 0.0025 0.956036 0.939025 2.45548 0.00522993 107 4 1 1.09377e-06 
-0.228384 -0.0445201 -3.95032 0.0025 0.962988 0.948611 2.4626 0.00519217 108 4 1 1.44171e-06 
-0.225798 -0.035526 -4.34271 0.0025 0.970341 0.958758 2.47013 0.00515283 109 4 1 9.50974e-07 
-0.223231 -0.0262501 -3.99385 0.0025 0.977641 0.968817 2.47757 0.00511435 110 4 1 -5.37348e-07 
-0.220683 -0.0190606 -2.55836 0.0025 0.983791 0.977366 2.48374 0.00508238 111 4 1 2.31385e-07 
-0.218149 -0.0131668 -3.31622 0.0025 0.989534 0.985483 2.48948 0.00505288 112 4 1 3.30962e-06 
-0.215631 -0.00336877 -5.93365 0.0025 0.997289 0.996281 2.49737 0.00501359 113 4 1 1.21574e-06 
-0.213135 0.0077444 -3.99318 0.0025 1.00526 1.00723 2.50542 0.00497386 114 4 1 -3.99251e-06 
-0.210657 0.0115792 0.223632 0.0025 1.00909 1.01264 2.50908 0.00495498 115 4 1 -1.34493e-06 
-0.20818 0.0116038 -1.29136 0.0025 1.01119 1.01588 2.51107 0.00494467 116 4 1 4.85789e-06 
-0.205712 0.0200946 -6.16902 0.0025 1.01726 1.02434 2.51726 0.00491517 117 4 1 1.07066e-06 
-0.203265 0.0300216 -2.87623 0.0025 1.02407 1.03369 2.52407 0.00488246 118 4 1 -4.37315e-06 
-0.200829 0.031666 0.350216 0.0025 1.02618 1.03671 2.52606 0.00487246 119 3 1 -2.58688e-06 
-0.198393 0.0300961 1.02804 0.0025 1.02501 1.03516 2.52487 0.00487802 120 4 1 -6.63493e-07 
-0.195951 0.0276443 1.27803 0.0025 1.02293 1.03226 2.52282 0.0048879 121 4 1 -1.43114e-07 
-0.193505 0.0248996 1.36094 0.0025 1.02058 1.02894 2.52048 0.00489918 122 4 1 1.66503e-08 
-0.191052 0.0220362 1.40025 0.0025 1.01812 1.02548 2.51805 0.00491099 123 4 1 8.43366e-08 
-0.188594 0.0191247 1.41205 0.0025 1.01565 1.02198 2.51559 0.00492298 124 4 1 1.35691e-07 
-0.186129 0.0162268 1.39395 0.0025 1.0132 1.01854 2.51316 0.00493486 125 4 1 1.89775e-07 
-0.183659 0.0134189 1.33677 0.0025 1.01085 1.01524 2.51083 0.00494631 126 4 1 2.42251e-07 
-0.181183 0.0107884 1.23698 0.0025 1.00868 1.01219 2.50866 0.00495697 127 4 1 2.82756e-07 
-0.178702 0.00841763 1.09954 0.0025 1.00674 1.00946 2.50673 0.00496653 128 4 1 3.02829e-07 
-0.176216 0.0063677 0.93693 0.0025 1.00508 1.00713 2.50507 0.00497474 129 4 1 2.99758e-07 
-0.173727 0.00466854 0.765173 0.0025 1.00371 1.00521 2.5037 0.00498152 130 4 1 2.76614e-07 
-0.171235 0.0033176 0.599542 0.0025 1.00263 1.00369 2.50262 0.0049869 131 4 1 2.3998e-07 
-0.16874 0.00228582 0.451462 0.0025 1.00181 1.00254 2.5018 0.00499099 132 4 1 1.9721e-07 
-0.166244 0.0015275 0.32732 0.0025 1.0012 1.00169 2.5012 0.00499398 133 4 1 1.54464e-07 
-0.163746 0.000990207 0.228887 0.0025 1.00078 1.0011 2.50078 0.0049961 134 4 1 1.15867e-07 
-0.161248 0.00062267 0.154579 0.0025 1.00049 1.00069 2.50049 0.00499755 135 4 1 8.35354e-08 
-0.158749 0.000379679 0.100912 0.0025 1.0003 1.00042 2.5003 0.00499851 136 4 1 5.80227e-08 
-0.156249 0.000224323 0.0636998 0.0025 1.00018 1.00025 2.50018 0.00499912 137 4 1 3.88842e-08 
-0.15375 0.000128267 0.0388732 0.0025 1.0001 1.00014 2.5001 0.0049995 138 4 1 2.51584e-08 
-0.15125 7.08606e-05 0.0229162 0.0025 1.00006 1.00008 2.50006 0.00499972 139 4 1 1.57151e-08 
-0.14875 3.77354e-05 0.0130321 0.0025 1.00003 1.00004 2.50003 0.00499985 140 4 1 9.47127e-09 
-0.14625 1.93113e-05 0.00713479 0.0025 1.00002 1.00002 2.50002 0.00499992 141 4 1 5.50073e-09 
-0.14375 9.45784e-06 0.00374961 0.0025 1.00001 1.00001 2.50001 0.00499996 142 4 1 3.07283e-09 
-0.14125 4.40785e-06 0.00188405 0.0025 1 1 2.5 0.00499998 143 4 1 1.64665e-09 
-0.13875 1.93918e-06 0.000900055 0.0025 1 1 2.5 0.00499999 144 4 1 8.43306e-10 
-0.13625 7.95708e-07 0.000405494 0.0025 1 1 2.5 0.005 145 4 1 4.10592e-10 
-0.13375 2.9875e-07 0.000170151 0.0025 1 1 2.5 0.005 146 4 1 1.88614e-10 
-0.13125 9.91958e-08 6.51529e-05 0.0025 1 1 2.5 0.005 147 4 1 8.07879e-11 
-0.12875 2.71221e-08 2.18892e-05 0.0025 1 1 2.5 0.005 148 4 1 3.16504e-11 
-0.12625 4.94137e-09 5.87825e-06 0.0025 1 1 2.5 0.005 149 4 1 1.09899e-11 
-0.12375 -1.17507e-10 8.78553e-07 0.0025 1 1 2.5 0.005 150 4 1 3.18739e-12 
-0.12125 3.4946e-11 -5.54795e-07 0.0025 1 1 2.5 0.005 151 5 1 3.77975e-13 
-0.11875 5.05871e-10 -6.58468e-08 0.0025 1 1 2.5 0.005 152 3 1 -2.8574e-13 
-0.11625 4.35836e-10 7.5255e-08 0.0025 1 1 2.5 0.005 153 4 1 -5.77824e-14 
-0.11375 2.70421e-10 8.24293e-08 0.0025 1 1 2.5 0.005 154 4 1 2.1323e-14 
-0.11125 1.38977e-10 5.61458e-08 0.0025 1 1 2.5 0.005 155 4 1 3.3684e-14 
-0.10875 6.12002e-11 3.02056e-08 0.0025 1 1 2.5 0.005 156 4 1 2.45613e-14 
-0.10625 2.29737e-11 1.37434e-08 0.0025 1 1 2.5 0.005 157 4 1 1.37987e-14 
-0.10375 7.01578e-12 5.25256e-09 0.0025 1 1 2.5 0.005 158 4 1 6.4734e-15 
-0.10125 1.49564e-12 1.59116e-09 0.0025 1 1 2.5 0.005 159 4 1 2.52953e-15 
-0.09875 6.65348e-14 3.37764e-10 0.0025 1 1 2.5 0.005 160 4 1 8.2494e-16 
-0.09625 -4.79546e-14 -1.04819e-10 0.0025 1 1 2.5 0.005 161 5 1 1.52056e-16 
-0.09375 5.50918e-14 -2.42153e-11 0.0025 1 1 2.5 0.005 162 4 1 -5.71987e-17 
-0.09125 6.00499e-14 4.54747e-12 0.0025 1 1 2.5 0.005 163 3 1 -9.23706e-18 
-0.08875 3.5518e-14 1.58025e-11 0.0025 1 1 2.5 0.005 164 4 1 -1.77636e-18 
-0.08625 1.31427e-14 1.17097e-11 0.0025 1 1 2.5 0.005 165 4 1 7.4607e-18 
-0.08375 -1.89637e-15 2.21689e-12 0.0025 1 1 2.5 0.005 166 5 1 5.32907e-18 
-0.08125 -1.7513e-15 -5.68434e-14 0.0025 1 1 2.5 0.005 167 5 1 -2.84217e-18 
-0.07875 -3.34914e-15 5.68434e-14 0.0025 1 1 2.5 0.005 168 5 1 3.55271e-18 
-0.07625 2.78944e-17 -5.68434e-14 0.0025 1 1 2.5 0.005 169 5 1 -7.10543e-18 
-0.07375 -5.70706e-16 -2.27374e-13 0.0025 1 1 2.5 0.005 170 5 1 5.68434e-18 
-0.07125 1.29744e-15 1.13687e-13 0.0025 1 1 2.5 0.005 171 5 1 -1.20792e-17 
-0.06875 -2.59119e-17 5.68434e-14 0.0025 1 1 2.5 0.005 172 5 1 1.10134e-17 
-0.06625 1.98102e-15 -5.68434e-14 0.0025 1 1 2.5 0.005 173 5 1 -1.59872e-17 
-0.06375 1.07376e-15 -1.66252e-26 0.0025 1 1 2.5 0.005 174 4 1 -2.13163e-18 
-0.06125 -1.55446e-15 5.76855e-27 0.0025 1 1 2.5 0.005 175 3 1 3.09086e-17 
-0.05875 2.30535e-15 1.13687e-13 0.0025 1 1 2.5 0.005 176 4 1 -2.4869e-17 
-0.05625 5.92237e-16 2.27374e-13 0.0025 1 1 2.5 0.005 177 5 1 2.13163e-18 
-0.05375 1.04691e-15 -5.68434e-14 0.0025 1 1 2.5 0.005 178 4 1 3.55271e-19 
-0.05125 -3.01521e-16 1.38051e-27 0.0025 1 1 2.5 0.005 179 5 1 -1.42109e-18 
-0.04875 2.60204e-15 -1.7053e-13 0.0025 1 1 2.5 0.005 180 5 1 -3.90799e-18 
-0.04625 5.35617e-16 -5.68434e-14 0.0025 1 1 2.5 0.005 181 5 1 3.55271e-18 
-0.04375 -7.3033e-16 -5.68434e-14 0.0025 1 1 2.5 0.005 182 5 1 -8.17124e-18 
-0.04125 -1.62658e-15 3.9443e-29 0.0025 1 1 2.5 0.005 183 5 1 3.90799e-18 
-0.03875 1.40155e-16 3.41061e-13 0.0025 1 1 2.5 0.005 184 5 1 -1.10134e-17 
-0.03625 -4.91802e-16 1.13687e-13 0.0025 1 1 2.5 0.005 185 4 1 -7.10543e-19 
-0.03375 -2.63708e-15 -1.13687e-13 0.0025 1 1 2.5 0.005 186 4 1 -5.68434e-18 
-0.03125 -2.18777e-15 -1.13687e-13 0.0025 1 1 2.5 0.005 187 3 1 3.97904e-17 
-0.02875 -2.85541e-15 -1.13687e-13 0.0025 1 1 2.5 0.005 188 4 1 -3.30402e-17 
-0.02625 9.09548e-16 1.13687e-13 0.0025 1 1 2.5 0.005 189 5 1 7.81597e-18 
-0.02375 -7.22023e-16 -5.68434e-14 0.0025 1 1 2.5 0.005 190 3 1 -3.90799e-18 
-0.02125 -9.60295e-16 9.09495e-13 0.0025 1 1 2.5 0.005 191 4 1 6.03961e-18 
-0.01875 -2.12252e-15 -2.27374e-13 0.0025 1 1 2.5 0.005 192 5 1 -7.10543e-18 
-0.01625 -1.58842e-15 -1.13687e-13 0.0025 1 1 2.5 0.005 193 4 1 2.13163e-18 
-0.01375 -9.57068e-16 -4.54747e-13 0.0025 1 1 2.5 0.005 194 3 1 3.55271e-19 
-0.01125 -1.30747e-15 4.54747e-13 0.0025 1 1 2.5 0.005 195 4 1 -1.42109e-18 
-0.00875 -5.14792e-16 -1.13687e-13 0.0025 1 1 2.5 0.005 196 5 1 -1.42109e-18 
-0.00625 -6.38982e-16 -2.27374e-13 0.0025 1 1 2.5 0.005 197 4 1 1.42109e-18 
-0.00375 6.14744e-18 2.85962e-28 0.0025 1 1 2.5 0.005 198 4 1 1.2326e-33 
-0.00125 -3.15506e-16 3.41061e-13 0.0025 1 1 2.5 0.005 199 4 1 1.2326e-33 
0.00125 -7.77973e-17 -2.27374e-13 0.0025 1 1 2.5 0.005 200 4 1 1.2326e-33 
0.00375 -2.10252e-16 -7.88861e-29 0.0025 1 1 2.5 0.005 201 4 1 1.2326e-33 
0.00625 -3.4989e-16 1.13687e-13 0.0025 1 1 2.5 0.005 202 4 1 -3.55271e-19 
0.00875 -6.56011e-16 2.84217e-13 0.0025 1 1 2.5 0.005 203 4 1 7.10543e-19 
0.01125 1.18331e-15 -2.84217e-13 0.0025 1 1 2.5 0.005 204 4 1 2.13163e-18 
0.01375 6.0825e-16 -1.13687e-13 0.0025 1 1 2.5 0.005 205 4 1 -4.26326e-18 
0.01625 2.1439e-15 2.84217e-13 0.0025 1 1 2.5 0.005 206 4 1 -7.10543e-19 
0.01875 -3.29676e-17 2.27374e-13 0.0025 1 1 2.5 0.005 207 4 1 3.55271e-19 
0.02125 9.39716e-17 4.54747e-13 0.0025 1 1 2.5 0.005 208 3 1 -2.13163e-18 
0.02375 1.6902e-15 5.68434e-13 0.0025 1 1 2.5 0.005 209 4 1 1.52767e-17 
0.02625 5.93597e-16 -9.09495e-13 0.0025 1 1 2.5 0.005 210 5 1 -1.59872e-17 
0.02875 1.98044e-15 -1.24048e-26 0.0025 1 1 2.5 0.005 211 4 1 4.26326e-18 
0.03125 3.07733e-15 4.54747e-13 0.0025 1 1 2.5 0.005 212 3 1 1.20792e-17 
0.03375 4.81416e-15 -3.41061e-13 0.0025 1 1 2.5 0.005 213 4 1 1.42109e-18 
0.03625 1.57395e-15 -5.68434e-14 0.0025 1 1 2.5 0.005 214 5 1 -1.95399e-17 
0.03875 3.07287e-15 2.27374e-13 0.0025 1 1 2.5 0.005 215 3 1 2.02505e-17 
0.04125 1.8678e-15 -1.7053e-13 0.0025 1 1 2.5 0.005 216 5 1 -9.23706e-18 
0.04375 2.82976e-15 -1.93268e-12 0.0025 1 1 2.5 0.005 217 4 1 -9.9476e-18 
0.04625 5.87425e-15 1.47793e-12 0.0025 1 1 2.5 0.005 218 3 1 1.59872e-17 
0.04875 2.31568e-15 5.68434e-13 0.0025 1 1 2.5 0.005 219 4 1 -8.52651e-18 
0.05125 4.65131e-15 -3.41061e-13 0.0025 1 1 2.5 0.005 220 4 1 -7.10543e-18 
0.05375 3.79019e-15 -4.54747e-13 0.0025 1 1 2.5 0.005 221 3 1 1.42109e-17 
0.05625 -5.3928e-16 -7.38964e-13 0.0025 1 1 2.5 0.005 222 5 1 1.52767e-17 
0.05875 4.99546e-15 7.95808e-13 0.0025 1 1 2.5 0.005 223 5 1 -8.45546e-17 
0.06125 -1.51233e-15 1.25056e-12 0.0025 1 1 2.5 0.005 224 3 1 7.99361e-17 
0.06375 6.0064e-15 -6.25278e-13 0.0025 1 1 2.5 0.005 225 3 1 2.13163e-18 
0.06625 1.78745e-15 -6.25278e-13 0.0025 1 1 2.5 0.005 226 5 1 -3.41061e-17 
0.06875 4.44422e-15 1.13687e-13 0.0025 1 1 2.5 0.005 227 5 1 1.91847e-17 
0.07125 5.57545e-16 -1.13687e-13 0.0025 1 1 2.5 0.005 228 5 1 -1.52767e-17 
0.07375 2.87381e-15 1.7053e-13 0.0025 1 1 2.5 0.005 229 5 1 7.81597e-18 
