# Time [s]: 0.237758
# Columns: pos [m], vel [m/s], acc [m/s^2], mass [kg], dens [kg/m^3], pres [Pa], ene [J/kg], sml [m], id, neighbor, alpha, gradh, ...additional?
1.34219 -0.673135 0.000870183 0.0025 0.511023 0.432694 2.15245 0.0097843 0 4 1 -0.000134225 
1.34697 -0.673141 0.000897163 0.0025 0.536877 0.426155 1.95 0.00931312 1 4 1 0.000179247 
1.35151 -0.673148 0.000935307 0.0025 0.548204 0.430822 1.96845 0.00912069 2 3 1 -1.90585e-05 
1.3561 -0.673154 0.000999039 0.0025 0.545937 0.429156 1.96459 0.00915856 3 5 1 3.48593e-06 
1.36067 -0.673162 0.00109716 0.0025 0.546333 0.429309 1.96453 0.00915192 4 4 1 -1.38931e-07 
1.36525 -0.673169 0.00123058 0.0025 0.546342 0.429276 1.96429 0.00915178 5 4 1 1.43362e-07 
1.36982 -0.673177 0.00139207 0.0025 0.546362 0.429272 1.96423 0.00915144 6 4 1 -3.95396e-09 
1.3744 -0.673186 0.00157003 0.0025 0.546372 0.429266 1.96416 0.00915127 7 4 1 7.74126e-09 
1.37897 -0.673195 0.00175363 0.0025 0.546383 0.429261 1.9641 0.00915109 8 4 1 4.24834e-09 
1.38355 -0.673204 0.00193795 0.0025 0.546391 0.429256 1.96405 0.00915095 9 4 1 4.94693e-09 
1.38813 -0.673214 0.00212834 0.0025 0.546398 0.429251 1.964 0.00915083 10 4 1 -2.79711e-09 
1.3927 -0.673224 0.00234019 0.0025 0.546404 0.429245 1.96395 0.00915073 11 4 1 4.1073e-09 
1.39728 -0.673235 0.00258868 0.0025 0.546409 0.429239 1.96391 0.00915065 12 4 1 2.13829e-09 
1.40185 -0.673247 0.00287102 0.0025 0.546412 0.429232 1.96386 0.0091506 13 4 1 2.78253e-09 
1.40643 -0.673259 0.00315821 0.0025 0.546413 0.429224 1.96382 0.00915058 14 4 1 1.31935e-09 
1.411 -0.673273 0.00341486 0.0025 0.546413 0.429216 1.96379 0.00915058 15 3 1 -2.32821e-09 
1.41558 -0.673287 0.00364043 0.0025 0.546412 0.429206 1.96375 0.0091506 16 4 1 4.19031e-09 
1.42015 -0.673304 0.00389146 0.0025 0.54641 0.429196 1.96371 0.00915064 17 4 1 6.71559e-10 
1.42473 -0.673322 0.00424591 0.0025 0.546406 0.429186 1.96367 0.0091507 18 4 1 -2.25872e-09 
1.4293 -0.673342 0.00472745 0.0025 0.546402 0.429174 1.96364 0.00915078 19 4 1 1.34855e-09 
1.43388 -0.673363 0.00526747 0.0025 0.546395 0.429161 1.9636 0.00915088 20 4 1 -3.21072e-10 
1.43845 -0.673386 0.00576599 0.0025 0.546387 0.429146 1.96356 0.00915102 21 4 1 -2.58491e-10 
1.44303 -0.673412 0.00620867 0.0025 0.546377 0.429131 1.96353 0.00915119 22 4 1 -3.65316e-10 
1.44761 -0.673441 0.00671394 0.0025 0.546366 0.429113 1.96349 0.00915138 23 4 1 -1.83301e-09 
1.45218 -0.673474 0.00743597 0.0025 0.546353 0.429095 1.96345 0.0091516 24 4 1 -7.24935e-10 
1.45676 -0.67351 0.00840722 0.0025 0.546337 0.429074 1.96341 0.00915185 25 4 1 -2.05076e-09 
1.46133 -0.673549 0.00949832 0.0025 0.546319 0.42905 1.96337 0.00915216 26 4 1 -3.48105e-09 
1.46591 -0.673593 0.0105661 0.0025 0.546299 0.429024 1.96332 0.0091525 27 4 1 -1.99207e-09 
1.47049 -0.673642 0.0116354 0.0025 0.546275 0.428994 1.96327 0.0091529 28 4 1 -2.54441e-09 
1.47506 -0.673697 0.0128943 0.0025 0.546248 0.428961 1.96322 0.00915336 29 4 1 -4.77119e-09 
1.47964 -0.67376 0.0145113 0.0025 0.546217 0.428924 1.96316 0.00915387 30 4 1 -4.44406e-09 
1.48422 -0.673831 0.0165039 0.0025 0.546182 0.428883 1.9631 0.00915445 31 4 1 -3.98504e-09 
1.48879 -0.67391 0.0187842 0.0025 0.546142 0.428836 1.96303 0.00915513 32 4 1 -7.64342e-09 
1.49337 -0.673999 0.0212767 0.0025 0.546096 0.428783 1.96295 0.00915591 33 4 1 -8.27033e-09 
1.49795 -0.6741 0.0239702 0.0025 0.546043 0.428723 1.96286 0.00915679 34 4 1 -5.87969e-09 
-0.497472 -0.674213 0.0268764 0.0025 0.545983 0.428655 1.96277 0.00915779 35 4 1 -8.66651e-09 
-0.492893 -0.674342 0.0300144 0.0025 0.545916 0.428579 1.96266 0.00915891 36 4 1 -9.70205e-09 
-0.488313 -0.674488 0.0334651 0.0025 0.545842 0.428495 1.96254 0.00916016 37 4 1 -7.66187e-09 
-0.483733 -0.674649 0.0372973 0.0025 0.545759 0.428402 1.96242 0.00916155 38 4 1 -8.88756e-09 
-0.479152 -0.674825 0.0413395 0.0025 0.545669 0.428301 1.96228 0.00916307 39 4 1 -8.34514e-09 
-0.47457 -0.67501 0.044686 0.0025 0.545571 0.428193 1.96213 0.00916471 40 4 1 -2.46073e-09 
-0.469987 -0.675201 0.0455204 0.0025 0.545471 0.428081 1.96198 0.00916639 41 4 1 5.65639e-09 
-0.465403 -0.675394 0.0430846 0.0025 0.545374 0.427973 1.96183 0.00916802 42 4 1 1.46936e-08 
-0.460819 -0.67558 0.0381386 0.0025 0.54529 0.427879 1.9617 0.00916944 43 4 1 2.43486e-08 
-0.456234 -0.675734 0.0317864 0.0025 0.545225 0.427807 1.9616 0.00917053 44 4 1 2.08444e-08 
-0.451649 -0.675829 0.0297301 0.0025 0.545177 0.427755 1.96153 0.00917133 45 5 1 6.80383e-08 
-0.447063 -0.675883 -0.0173145 0.0025 0.545186 0.427765 1.96153 0.00917119 46 4 1 1.20451e-07 
-0.442477 -0.67565 -0.0586061 0.0025 0.545294 0.427883 1.96168 0.00916937 47 4 1 1.32422e-07 
-0.437893 -0.675336 -0.0795434 0.0025 0.545514 0.428135 1.96199 0.00916567 48 4 1 4.37134e-07 
-0.433312 -0.674502 -0.336461 0.0025 0.546085 0.428783 1.96281 0.00915608 49 4 1 1.05437e-06 
-0.428737 -0.67196 -0.825526 0.0025 0.547441 0.430279 1.96475 0.00913341 50 4 1 1.34665e-06 
-0.424178 -0.667539 -1.18508 0.0025 0.549693 0.432749 1.96798 0.00909599 51 4 1 1.26218e-06 
-0.419641 -0.661894 -1.41943 0.0025 0.552643 0.436002 1.97219 0.00904744 52 4 1 1.43999e-06 
-0.415131 -0.655152 -1.74417 0.0025 0.556264 0.440015 1.97734 0.00898854 53 4 1 1.98001e-06 
-0.410653 -0.646756 -2.19081 0.0025 0.560735 0.444982 1.98368 0.00891687 54 4 1 2.5571e-06 
-0.406214 -0.636545 -2.66926 0.0025 0.566183 0.451045 1.99137 0.00883107 55 4 1 2.94758e-06 
-0.401821 -0.624586 -3.08919 0.0025 0.572561 0.458166 2.00031 0.00873269 56 4 1 3.03675e-06 
-0.397481 -0.61137 -3.36622 0.0025 0.579658 0.466122 2.01019 0.00862578 57 4 1 2.83612e-06 
-0.393195 -0.597563 -3.48036 0.0025 0.587164 0.474581 2.02056 0.00851551 58 4 1 2.58504e-06 
-0.388965 -0.583682 -3.52902 0.0025 0.594833 0.483273 2.03108 0.00840572 59 4 1 2.33637e-06 
-0.384789 -0.569924 -3.50357 0.0025 0.602505 0.492014 2.04151 0.00829869 60 4 1 2.0582e-06 
-0.380666 -0.556584 -3.42926 0.0025 0.61005 0.500657 2.05169 0.00819605 61 4 1 1.86301e-06 
-0.376593 -0.54371 -3.36249 0.0025 0.617418 0.50914 2.06157 0.00809824 62 4 1 1.70679e-06 
-0.372567 -0.531274 -3.27829 0.0025 0.624594 0.517441 2.07111 0.00800521 63 4 1 1.56123e-06 
-0.368587 -0.519331 -3.19372 0.0025 0.631569 0.52555 2.08033 0.00791679 64 4 1 1.51497e-06 
-0.36465 -0.507757 -3.15231 0.0025 0.63839 0.533516 2.08928 0.00783221 65 4 1 1.55091e-06 
-0.360755 -0.496438 -3.14815 0.0025 0.645137 0.541431 2.09808 0.00775029 66 4 1 1.653e-06 
-0.3569 -0.48518 -3.20354 0.0025 0.65191 0.549409 2.10686 0.00766977 67 4 1 1.79679e-06 
-0.353085 -0.473814 -3.29937 0.0025 0.658805 0.557563 2.11574 0.0075895 68 4 1 1.92616e-06 
-0.34931 -0.462153 -3.41681 0.0025 0.665885 0.565971 2.12481 0.00750881 69 4 1 2.0274e-06 
-0.345576 -0.450276 -3.54088 0.0025 0.673177 0.574667 2.13408 0.00742747 70 4 1 2.1035e-06 
-0.341882 -0.438106 -3.66799 0.0025 0.680685 0.583656 2.14357 0.00734555 71 4 1 2.07004e-06 
-0.33823 -0.425795 -3.7244 0.0025 0.688349 0.592874 2.15319 0.00726376 72 4 1 2.01723e-06 
-0.334618 -0.413461 -3.78572 0.0025 0.69611 0.602251 2.16286 0.00718278 73 4 1 2.01447e-06 
-0.331047 -0.401109 -3.8448 0.0025 0.703955 0.611772 2.17258 0.00710273 74 4 1 1.93914e-06 
-0.327515 -0.388778 -3.85365 0.0025 0.711838 0.621382 2.18227 0.00702407 75 4 1 1.87583e-06 
-0.324023 -0.376581 -3.87796 0.0025 0.719725 0.63104 2.19191 0.0069471 76 4 1 1.82983e-06 
-0.320568 -0.364504 -3.88044 0.0025 0.727606 0.640734 2.20148 0.00687185 77 4 1 1.77226e-06 
-0.31715 -0.352541 -3.88594 0.0025 0.735466 0.650445 2.21096 0.00679841 78 4 1 1.75482e-06 
-0.313769 -0.340741 -3.90718 0.0025 0.743318 0.660186 2.22037 0.0067266 79 4 1 1.71937e-06 
-0.310424 -0.329009 -3.91283 0.0025 0.751159 0.669955 2.22971 0.00665638 80 4 1 1.65727e-06 
-0.307113 -0.317429 -3.90808 0.0025 0.758973 0.67973 2.23895 0.00658785 81 4 1 1.62225e-06 
-0.303836 -0.306005 -3.91504 0.0025 0.766758 0.689511 2.24811 0.00652096 82 4 1 1.58694e-06 
-0.300592 -0.294672 -3.91314 0.0025 0.774518 0.699299 2.25718 0.00645563 83 4 1 1.56537e-06 
-0.29738 -0.283512 -3.92911 0.0025 0.782261 0.709106 2.26618 0.00639173 84 4 1 1.54965e-06 
-0.2942 -0.272375 -3.94259 0.0025 0.789997 0.718941 2.27511 0.00632914 85 4 1 1.50315e-06 
-0.291051 -0.261427 -3.94013 0.0025 0.797714 0.728791 2.28397 0.00626791 86 4 1 1.45948e-06 
-0.287932 -0.250544 -3.94005 0.0025 0.805401 0.738641 2.29275 0.00620809 87 4 1 1.42931e-06 
-0.284842 -0.239832 -3.94063 0.0025 0.813061 0.748494 2.30145 0.0061496 88 4 1 1.40149e-06 
-0.281782 -0.229189 -3.942 0.0025 0.820695 0.758351 2.31006 0.0060924 89 4 1 1.3804e-06 
-0.27875 -0.218708 -3.95 0.0025 0.828311 0.768223 2.31861 0.00603638 90 4 1 1.39798e-06 
-0.275745 -0.208215 -3.99253 0.0025 0.835936 0.778138 2.32713 0.00598132 91 4 1 1.29855e-06 
-0.272768 -0.197908 -3.92644 0.0025 0.843521 0.788041 2.33555 0.00592753 92 4 1 1.32254e-06 
-0.269818 -0.187699 -4.01311 0.0025 0.851092 0.79796 2.34391 0.00587481 93 4 1 1.2586e-06 
-0.266893 -0.177532 -3.9214 0.0025 0.858632 0.807872 2.35219 0.00582321 94 4 1 1.18525e-06 
-0.263994 -0.167676 -3.94517 0.0025 0.866103 0.817736 2.36036 0.00577298 95 4 1 1.32127e-06 
-0.26112 -0.157661 -4.03648 0.0025 0.873625 0.827691 2.36854 0.00572328 96 4 1 1.16377e-06 
-0.258271 -0.147827 -3.91055 0.0025 0.881104 0.837626 2.37662 0.0056747 97 4 1 1.16664e-06 
-0.255446 -0.138202 -4.01176 0.0025 0.888543 0.84755 2.38463 0.00562719 98 4 1 1.27591e-06 
-0.252644 -0.128336 -4.05448 0.0025 0.896045 0.857575 2.39267 0.00558008 99 4 1 9.62272e-07 
-0.249865 -0.118921 -3.82008 0.0025 0.9034 0.867447 2.40049 0.00553465 100 4 1 1.06417e-06 
-0.247109 -0.109724 -3.99935 0.0025 0.910691 0.877275 2.40822 0.00549034 101 4 1 1.29724e-06 
-0.244375 -0.100121 -4.09162 0.0025 0.918125 0.887303 2.41608 0.00544588 102 4 1 8.65509e-07 
-0.241663 -0.0909345 -3.76663 0.0025 0.925395 0.897154 2.4237 0.0054031 103 4 1 9.49709e-07 
-0.238972 -0.0821428 -3.96353 0.0025 0.932566 0.906922 2.43119 0.00536155 104 4 1 1.41525e-06 
-0.236301 -0.0726591 -4.26019 0.0025 0.940015 0.917065 2.43896 0.00531906 105 4 1 8.79363e-07 
-0.233653 -0.063421 -3.82673 0.0025 0.947336 0.92706 2.44654 0.00527796 106 4 1 4.36996e-07 
-0.231023 -0.0552178 -3.57801 0.0025 0.954188 0.936477 2.45359 0.00524006 107 4 1 9.12649e-07 
-0.228412 -0.0469095 -3.84122 0.0025 0.961027 0.945905 2.4606 0.00520276 108 4 1 1.36268e-06 
-0.225821 -0.0381467 -4.20331 0.0025 0.968237 0.955856 2.46798 0.00516403 109 4 1 1.26711e-06 
-0.223248 -0.0287894 -4.28628 0.0025 0.975652 0.966077 2.47555 0.00512478 110 4 1 -1.20432e-07 
-0.220696 -0.0207471 -2.94101 0.0025 0.982216 0.975158 2.48218 0.00509053 111 4 1 -4.70829e-07 
-0.218158 -0.0149967 -2.65112 0.0025 0.987774 0.982994 2.48771 0.00506188 112 4 1 2.51172e-06 
-0.215634 -0.00681622 -5.30814 0.0025 0.994767 0.992794 2.4948 0.0050263 113 4 1 2.69213e-06 
-0.213131 0.00491524 -5.23242 0.0025 1.00318 1.00437 2.50334 0.00498415 114 4 1 -2.76887e-06 
-0.210649 0.0113738 -0.893542 0.0025 1.0085 1.01177 2.50857 0.00495785 115 4 1 -3.21308e-06 
-0.208174 0.0112943 0.282281 0.0025 1.01037 1.01465 2.51025 0.0049487 116 4 1 3.43588e-06 
-0.205701 0.016567 -5.33418 0.0025 1.01498 1.02121 2.51493 0.00492619 117 4 1 3.42651e-06 
-0.203247 0.0277546 -4.51642 0.0025 1.02234 1.0313 2.52236 0.00489075 118 4 1 -3.54738e-06 
-0.20081 0.0317229 -0.164792 0.0025 1.02601 1.03644 2.52593 0.00487324 119 3 1 -3.51267e-06 
-0.198374 0.0306894 0.906485 0.0025 1.02549 1.03582 2.52535 0.00487573 120 4 1 -1.00385e-06 
-0.195934 0.0284108 1.22144 0.0025 1.02359 1.03318 2.52346 0.00488478 121 4 1 -2.54232e-07 
-0.193489 0.0257291 1.34412 0.0025 1.02129 1.02994 2.52119 0.00489576 122 4 1 -1.51495e-08 
-0.191038 0.0228922 1.39114 0.0025 1.01886 1.02651 2.51878 0.00490746 123 4 1 6.79413e-08 
-0.188582 0.0199903 1.4106 0.0025 1.01638 1.02302 2.51632 0.00491941 124 4 1 1.21305e-07 
-0.186119 0.017084 1.40141 0.0025 1.01392 1.01956 2.51388 0.00493135 125 4 1 1.73946e-07 
-0.18365 0.0142447 1.35604 0.0025 1.01154 1.01621 2.51151 0.00494295 126 4 1 2.27159e-07 
-0.181176 0.0115569 1.26879 0.0025 1.00931 1.01308 2.50929 0.00495386 127 4 1 2.71634e-07 
-0.178697 0.00910504 1.14202 0.0025 1.0073 1.01025 2.50729 0.00496376 128 4 1 2.98005e-07 
-0.176212 0.00695741 0.986074 0.0025 1.00555 1.0078 2.50554 0.00497238 129 4 1 3.01736e-07 
-0.173724 0.00515348 0.816156 0.0025 1.0041 1.00576 2.50409 0.00497959 130 4 1 2.84246e-07 
-0.171233 0.00370016 0.647972 0.0025 1.00293 1.00412 2.50293 0.00498538 131 4 1 2.51223e-07 
-0.168739 0.00257582 0.494205 0.0025 1.00204 1.00286 2.50203 0.00498984 132 4 1 2.09919e-07 
-0.166243 0.00173912 0.362756 0.0025 1.00137 1.00193 2.50137 0.00499315 133 4 1 1.66916e-07 
-0.163746 0.00113912 0.256711 0.0025 1.0009 1.00126 2.50089 0.00499552 134 4 1 1.26955e-07 
-0.161247 0.000723864 0.175401 0.0025 1.00057 1.0008 2.50057 0.00499715 135 4 1 9.2723e-08 
-0.158748 0.000446146 0.115831 0.0025 1.00035 1.00049 2.50035 0.00499825 136 4 1 6.52075e-08 
-0.156249 0.00026654 0.0739679 0.0025 1.00021 1.0003 2.50021 0.00499895 137 4 1 4.42313e-08 
-0.15375 0.000154194 0.0456746 0.0025 1.00012 1.00017 2.50012 0.00499939 138 4 1 2.8965e-08 
-0.15125 8.62467e-05 0.0272564 0.0025 1.00007 1.0001 2.50007 0.00499966 139 4 1 1.83154e-08 
-0.14875 4.65468e-05 0.0157008 0.0025 1.00004 1.00005 2.50004 0.00499982 140 4 1 1.11783e-08 
-0.14625 2.41718e-05 0.00871478 0.0025 1.00002 1.00003 2.50002 0.0049999 141 4 1 6.57823e-09 
-0.14375 1.20334e-05 0.004649 0.0025 1.00001 1.00001 2.50001 0.00499995 142 4 1 3.72657e-09 
-0.14125 5.71399e-06 0.00237515 0.0025 1 1.00001 2.5 0.00499998 143 4 1 2.02745e-09 
-0.13875 2.56981e-06 0.00115639 0.0025 1 1 2.5 0.00499999 144 4 1 1.05583e-09 
-0.13625 1.08344e-06 0.000532763 0.0025 1 1 2.5 0.005 145 4 1 5.23888e-10 
-0.13375 4.21409e-07 0.000229829 0.0025 1 1 2.5 0.005 146 4 1 2.46035e-10 
-0.13125 1.47167e-07 9.12777e-05 0.0025 1 1 2.5 0.005 147 4 1 1.08287e-10 
-0.12875 4.37644e-08 3.23799e-05 0.0025 1 1 2.5 0.005 148 4 1 4.39711e-11 
-0.12625 9.69361e-09 9.61833e-06 0.0025 1 1 2.5 0.005 149 4 1 1.59741e-11 
-0.12375 7.81398e-10 2.05268e-06 0.0025 1 1 2.5 0.005 150 4 1 5.08249e-12 
-0.12125 -2.63255e-10 -4.1761e-07 0.0025 1 1 2.5 0.005 151 5 1 1.05597e-12 
-0.11875 4.2289e-10 -2.04748e-07 0.0025 1 1 2.5 0.005 152 4 1 -2.39078e-13 
-0.11625 4.71118e-10 3.97981e-08 0.0025 1 1 2.5 0.005 153 3 1 -1.27931e-13 
-0.11375 3.21907e-10 8.54635e-08 0.0025 1 1 2.5 0.005 154 4 1 4.60929e-15 
-0.11125 1.76079e-10 6.4839e-08 0.0025 1 1 2.5 0.005 155 4 1 3.2437e-14 
-0.10875 8.20388e-11 3.77473e-08 0.0025 1 1 2.5 0.005 156 4 1 2.79211e-14 
-0.10625 3.27727e-11 1.82101e-08 0.0025 1 1 2.5 0.005 157 4 1 1.69781e-14 
-0.10375 1.09141e-11 7.45956e-09 0.0025 1 1 2.5 0.005 158 4 1 8.49525e-15 
-0.10125 2.75187e-12 2.50526e-09 0.0025 1 1 2.5 0.005 159 4 1 3.55307e-15 
-0.09875 3.54038e-13 5.99755e-10 0.0025 1 1 2.5 0.005 160 4 1 1.25979e-15 
-0.09625 -7.97328e-14 1.19371e-12 0.0025 1 1 2.5 0.005 161 5 1 3.16192e-16 
-0.09375 2.97285e-14 -5.84919e-11 0.0025 1 1 2.5 0.005 162 4 1 -2.41585e-17 
-0.09125 6.1305e-14 -4.54747e-13 0.0025 1 1 2.5 0.005 163 3 1 -2.30926e-17 
-0.08875 4.46523e-14 1.39835e-11 0.0025 1 1 2.5 0.005 164 4 1 -4.61853e-18 
-0.08625 2.01154e-14 1.10276e-11 0.0025 1 1 2.5 0.005 165 4 1 5.32907e-18 
-0.08375 9.79878e-16 7.16227e-12 0.0025 1 1 2.5 0.005 166 4 1 7.10543e-18 
-0.08125 -1.87333e-15 -3.41061e-13 0.0025 1 1 2.5 0.005 167 5 1 -1.42109e-18 
-0.07875 -3.29684e-15 1.13687e-13 0.0025 1 1 2.5 0.005 168 5 1 3.55271e-18 
-0.07625 -2.4401e-17 -1.13687e-13 0.0025 1 1 2.5 0.005 169 5 1 -7.4607e-18 
-0.07375 -7.10161e-16 -2.27374e-13 0.0025 1 1 2.5 0.005 170 5 1 5.68434e-18 
-0.07125 1.36717e-15 1.13687e-13 0.0025 1 1 2.5 0.005 171 5 1 -1.20792e-17 
-0.06875 8.95178e-18 5.68434e-14 0.0025 1 1 2.5 0.005 172 5 1 1.10134e-17 
-0.06625 1.96359e-15 -7.10961e-27 0.0025 1 1 2.5 0.005 173 5 1 -1.59872e-17 
-0.06375 1.05633e-15 -5.68434e-14 0.0025 1 1 2.5 0.005 174 4 1 -2.13163e-18 
-0.06125 -1.55446e-15 5.76855e-27 0.0025 1 1 2.5 0.005 175 3 1 3.09086e-17 
-0.05875 2.40994e-15 2.27374e-13 0.0025 1 1 2.5 0.005 176 4 1 -2.4869e-17 
-0.05625 6.79396e-16 5.68434e-14 0.0025 1 1 2.5 0.005 177 5 1 2.13163e-18 
-0.05375 1.02948e-15 -7.88861e-29 0.0025 1 1 2.5 0.005 178 4 1 3.55271e-19 
-0.05125 -3.18953e-16 -5.68434e-14 0.0025 1 1 2.5 0.005 179 5 1 -1.42109e-18 
-0.04875 2.53231e-15 -5.68434e-14 0.0025 1 1 2.5 0.005 180 5 1 -3.90799e-18 
-0.04625 4.6589e-16 -1.7053e-13 0.0025 1 1 2.5 0.005 181 5 1 3.55271e-18 
-0.04375 -7.65194e-16 -5.68434e-14 0.0025 1 1 2.5 0.005 182 5 1 -8.17124e-18 
-0.04125 -1.62658e-15 3.9443e-29 0.0025 1 1 2.5 0.005 183 5 1 3.90799e-18 
-0.03875 3.14474e-16 2.27374e-13 0.0025 1 1 2.5 0.005 184 5 1 -1.10134e-17 
-0.03625 -3.87211e-16 2.27374e-13 0.0025 1 1 2.5 0.005 185 4 1 -7.10543e-19 
-0.03375 -2.67194e-15 -2.82905e-26 0.0025 1 1 2.5 0.005 186 4 1 -5.68434e-18 
-0.03125 -2.62356e-15 -1.3074e-12 0.0025 1 1 2.5 0.005 187 3 1 3.87246e-17 
-0.02875 -2.29759e-15 1.93268e-12 0.0025 1 1 2.5 0.005 188 4 1 -3.23297e-17 
-0.02625 6.30639e-16 -1.02318e-12 0.0025 1 1 2.5 0.005 189 5 1 8.17124e-18 
-0.02375 -7.04591e-16 1.13687e-13 0.0025 1 1 2.5 0.005 190 3 1 -3.90799e-18 
-0.02125 -5.07068e-16 5.68434e-13 0.0025 1 1 2.5 0.005 191 4 1 6.03961e-18 
-0.01875 -2.24454e-15 -1.7053e-13 0.0025 1 1 2.5 0.005 192 5 1 -7.10543e-18 
-0.01625 -1.64072e-15 -5.68434e-14 0.0025 1 1 2.5 0.005 193 4 1 1.42109e-18 
-0.01375 -1.11395e-15 -5.68434e-14 0.0025 1 1 2.5 0.005 194 3 1 3.55271e-19 
-0.01125 -1.09829e-15 2.27374e-13 0.0025 1 1 2.5 0.005 195 4 1 -1.42109e-18 
-0.00875 -6.54247e-16 -3.41061e-13 0.0025 1 1 2.5 0.005 196 5 1 2.46519e-33 
-0.00625 -6.56414e-16 1.7053e-13 0.0025 1 1 2.5 0.005 197 3 1 3.55271e-19 
-0.00375 -8.10116e-17 -2.84217e-13 0.0025 1 1 2.5 0.005 198 4 1 -7.10543e-19 
-0.00125 -1.06325e-16 3.41061e-13 0.0025 1 1 2.5 0.005 199 4 1 1.2326e-33 
0.00125 -2.17252e-16 -2.27374e-13 0.0025 1 1 2.5 0.005 200 4 1 1.2326e-33 
0.00375 -2.10252e-16 -7.88861e-29 0.0025 1 1 2.5 0.005 201 4 1 1.2326e-33 
0.00625 -3.15026e-16 -1.67633e-28 0.0025 1 1 2.5 0.005 202 4 1 1.2326e-33 
0.00875 -4.64261e-16 3.41061e-13 0.0025 1 1 2.5 0.005 203 4 1 1.2326e-33 
0.01125 1.09615e-15 2.46519e-28 0.0025 1 1 2.5 0.005 204 4 1 2.4869e-18 
0.01375 5.03659e-16 -2.27374e-13 0.0025 1 1 2.5 0.005 205 4 1 -4.26326e-18 
0.01625 2.33565e-15 3.41061e-13 0.0025 1 1 2.5 0.005 206 4 1 -7.10543e-19 
0.01875 1.58782e-16 3.97904e-13 0.0025 1 1 2.5 0.005 207 4 1 -3.55271e-19 
0.02125 3.38017e-16 3.41061e-13 0.0025 1 1 2.5 0.005 208 3 1 -1.42109e-18 
0.02375 1.98655e-15 3.97904e-13 0.0025 1 1 2.5 0.005 209 4 1 1.49214e-17 
0.02625 1.05506e-16 -6.82121e-13 0.0025 1 1 2.5 0.005 210 5 1 -1.59872e-17 
0.02875 1.98044e-15 -1.24048e-26 0.0025 1 1 2.5 0.005 211 4 1 4.9738e-18 
0.03125 3.30395e-15 2.84217e-13 0.0025 1 1 2.5 0.005 212 3 1 1.1724e-17 
0.03375 4.6747e-15 -1.13687e-13 0.0025 1 1 2.5 0.005 213 4 1 1.06581e-18 
0.03625 1.50422e-15 -1.7053e-13 0.0025 1 1 2.5 0.005 214 5 1 -1.88294e-17 
0.03875 3.17746e-15 1.13687e-13 0.0025 1 1 2.5 0.005 215 3 1 1.98952e-17 
0.04125 1.71091e-15 -3.41061e-13 0.0025 1 1 2.5 0.005 216 4 1 -9.23706e-18 
0.04375 2.37653e-15 4.54747e-13 0.0025 1 1 2.5 0.005 217 4 1 -1.06581e-17 
0.04625 5.52561e-15 -2.6148e-12 0.0025 1 1 2.5 0.005 218 3 1 1.66978e-17 
0.04875 3.30929e-15 2.67164e-12 0.0025 1 1 2.5 0.005 219 4 1 -8.88178e-18 
0.05125 4.32011e-15 -7.38964e-13 0.0025 1 1 2.5 0.005 220 5 1 -7.4607e-18 
0.05375 3.54615e-15 -3.41061e-13 0.0025 1 1 2.5 0.005 221 3 1 1.35003e-17 
0.05625 -9.40212e-16 -5.68434e-13 0.0025 1 1 2.5 0.005 222 5 1 1.56319e-17 
0.05875 5.44869e-15 6.82121e-13 0.0025 1 1 2.5 0.005 223 5 1 -8.3844e-17 
0.06125 -8.15057e-16 1.02318e-12 0.0025 1 1 2.5 0.005 224 3 1 7.8515e-17 
0.06375 5.69263e-15 -3.97904e-13 0.0025 1 1 2.5 0.005 225 3 1 2.84217e-18 
0.06625 1.40395e-15 -6.25278e-13 0.0025 1 1 2.5 0.005 226 5 1 -3.33955e-17 
0.06875 4.49652e-15 5.68434e-14 0.0025 1 1 2.5 0.005 227 5 1 1.88294e-17 
0.07125 4.87818e-16 -1.13687e-13 0.0025 1 1 2.5 0.005 228 5 1 -1.52767e-17 
0.07375 3.03069e-15 3.41061e-13 0.0025 1 1 2.5 0.005 229 5 1 7.10543e-18 
