# Time [s]: 0.245119
# Columns: pos [m], vel [m/s], acc [m/s^2], mass [kg], dens [kg/m^3], pres [Pa], ene [J/kg], sml [m], id, neighbor, alpha, gradh, ...additional?
1.33724 -0.67313 0.000673896 0.0025 0.511027 0.432699 2.15246 0.00978422 0 4 1 -0.000134225 
1.34202 -0.673135 0.000715513 0.0025 0.536882 0.426161 1.95 0.00931304 1 4 1 0.000179248 
1.34656 -0.673141 0.00078171 0.0025 0.54821 0.430829 1.96846 0.00912059 2 3 1 -1.90586e-05 
1.35114 -0.673147 0.000879348 0.0025 0.545943 0.429162 1.9646 0.00915846 3 5 1 3.48575e-06 
1.35572 -0.673154 0.00100335 0.0025 0.54634 0.429315 1.96454 0.00915182 4 4 1 -1.38997e-07 
1.36029 -0.673161 0.001144 0.0025 0.546348 0.429283 1.9643 0.00915167 5 4 1 1.43349e-07 
1.36487 -0.673168 0.00129121 0.0025 0.546369 0.429279 1.96424 0.00915133 6 4 1 -3.91467e-09 
1.36944 -0.673175 0.00143933 0.0025 0.546379 0.429274 1.96417 0.00915115 7 4 1 7.81758e-09 
1.37402 -0.673182 0.00159061 0.0025 0.54639 0.429269 1.96411 0.00915097 8 4 1 4.33e-09 
1.37859 -0.67319 0.00175485 0.0025 0.546399 0.429265 1.96406 0.00915082 9 4 1 5.00315e-09 
1.38317 -0.673199 0.00194228 0.0025 0.546407 0.42926 1.96402 0.0091507 10 4 1 -2.77005e-09 
1.38775 -0.673207 0.00215173 0.0025 0.546413 0.429255 1.96397 0.00915058 11 4 1 4.14843e-09 
1.39232 -0.673217 0.0023645 0.0025 0.546418 0.429249 1.96392 0.0091505 12 4 1 2.26425e-09 
1.3969 -0.673227 0.00255585 0.0025 0.546422 0.429243 1.96388 0.00915044 13 4 1 3.02562e-09 
1.40147 -0.673238 0.00272127 0.0025 0.546424 0.429236 1.96384 0.0091504 14 4 1 1.61147e-09 
1.40605 -0.673249 0.00289359 0.0025 0.546425 0.429228 1.9638 0.00915039 15 4 1 -2.13025e-09 
1.41062 -0.673263 0.00312512 0.0025 0.546425 0.42922 1.96376 0.00915038 16 3 1 4.20671e-09 
1.4152 -0.673277 0.00344024 0.0025 0.546424 0.429212 1.96373 0.0091504 17 4 1 5.99552e-10 
1.41977 -0.673292 0.00380394 0.0025 0.546422 0.429202 1.9637 0.00915044 18 4 1 -2.18385e-09 
1.42435 -0.673309 0.00414968 0.0025 0.546418 0.429192 1.96366 0.0091505 19 4 1 1.72648e-09 
1.42892 -0.673327 0.00445229 0.0025 0.546413 0.429181 1.96363 0.00915058 20 4 1 2.39703e-10 
1.4335 -0.673348 0.00477186 0.0025 0.546407 0.429169 1.96359 0.00915068 21 4 1 1.63552e-10 
1.43807 -0.67337 0.00520964 0.0025 0.5464 0.429155 1.96356 0.00915081 22 4 1 -2.73511e-10 
1.44265 -0.673395 0.00580872 0.0025 0.546391 0.429141 1.96353 0.00915096 23 4 1 -1.87926e-09 
1.44722 -0.673423 0.00650607 0.0025 0.54638 0.429125 1.96349 0.00915114 24 4 1 -4.78102e-10 
1.4518 -0.673452 0.00720094 0.0025 0.546367 0.429107 1.96345 0.00915135 25 4 1 -1.28803e-09 
1.45638 -0.673485 0.00787438 0.0025 0.546353 0.429087 1.96342 0.0091516 26 4 1 -2.44975e-09 
1.46095 -0.673522 0.00862494 0.0025 0.546336 0.429065 1.96337 0.00915187 27 4 1 -1.15097e-09 
1.46553 -0.673564 0.00957983 0.0025 0.546317 0.429041 1.96333 0.00915219 28 4 1 -2.06163e-09 
1.4701 -0.673611 0.0107881 0.0025 0.546295 0.429014 1.96329 0.00915256 29 4 1 -4.36446e-09 
1.47468 -0.673662 0.0122081 0.0025 0.54627 0.428983 1.96324 0.00915298 30 4 1 -3.70215e-09 
1.47926 -0.67372 0.0137756 0.0025 0.546242 0.428949 1.96318 0.00915346 31 4 1 -2.73563e-09 
1.48383 -0.673785 0.0154635 0.0025 0.546209 0.42891 1.96312 0.00915401 32 4 1 -6.00331e-09 
1.48841 -0.673858 0.0172945 0.0025 0.546171 0.428866 1.96306 0.00915464 33 4 1 -6.48088e-09 
1.49299 -0.673941 0.0193433 0.0025 0.546129 0.428817 1.96298 0.00915535 34 4 1 -4.2364e-09 
1.49757 -0.674035 0.0217559 0.0025 0.546081 0.428762 1.96291 0.00915616 35 4 1 -7.57983e-09 
-0.497856 -0.674142 0.0247138 0.0025 0.546026 0.4287 1.96282 0.00915707 36 4 1 -9.54169e-09 
-0.493277 -0.674261 0.0282542 0.0025 0.545964 0.42863 1.96272 0.00915811 37 4 1 -8.31365e-09 
-0.488698 -0.674394 0.0320279 0.0025 0.545894 0.42855 1.96261 0.00915929 38 4 1 -9.58349e-09 
-0.484118 -0.67454 0.0353517 0.0025 0.545815 0.428462 1.96249 0.00916061 39 4 1 -8.68555e-09 
-0.479537 -0.674704 0.0379313 0.0025 0.545729 0.428366 1.96236 0.00916205 40 4 1 -4.7982e-09 
-0.474956 -0.674885 0.0404353 0.0025 0.545639 0.428265 1.96222 0.00916357 41 4 1 -3.26465e-09 
-0.470374 -0.675077 0.0432558 0.0025 0.545544 0.42816 1.96208 0.00916516 42 4 1 -1.87535e-09 
-0.465791 -0.675267 0.0446425 0.0025 0.545448 0.428053 1.96193 0.00916677 43 4 1 5.32493e-09 
-0.461207 -0.675449 0.0424041 0.0025 0.545356 0.427951 1.96179 0.00916832 44 4 1 1.701e-08 
-0.456622 -0.675612 0.0368958 0.0025 0.545277 0.427863 1.96167 0.00916965 45 4 1 2.59829e-08 
-0.452037 -0.675734 0.0252047 0.0025 0.545219 0.427798 1.96158 0.00917063 46 4 1 2.93717e-08 
-0.447452 -0.675829 0.0268643 0.0025 0.545187 0.427764 1.96153 0.00917116 47 5 1 9.07032e-08 
-0.442866 -0.67581 -0.0434234 0.0025 0.545229 0.427811 1.96159 0.00917045 48 4 1 1.37204e-07 
-0.438281 -0.675506 -0.0746777 0.0025 0.545384 0.427981 1.9618 0.00916786 49 4 1 1.70293e-07 
-0.433698 -0.675093 -0.120556 0.0025 0.545682 0.428323 1.96223 0.00916284 50 4 1 5.82188e-07 
-0.429119 -0.673867 -0.466037 0.0025 0.546439 0.429172 1.9633 0.00915016 51 4 1 1.16941e-06 
-0.424548 -0.670786 -0.932968 0.0025 0.548042 0.430936 1.9656 0.00912339 52 4 1 1.33724e-06 
-0.419995 -0.665962 -1.26074 0.0025 0.550499 0.433634 1.96912 0.00908268 53 4 1 1.26374e-06 
-0.415465 -0.660065 -1.48908 0.0025 0.553617 0.437077 1.97357 0.00903151 54 4 1 1.49598e-06 
-0.410964 -0.652974 -1.82845 0.0025 0.557405 0.441278 1.97896 0.00897013 55 4 1 2.01782e-06 
-0.406495 -0.644317 -2.25382 0.0025 0.562027 0.446414 1.9855 0.00889637 56 4 1 2.5173e-06 
-0.402067 -0.633927 -2.69884 0.0025 0.567566 0.452582 1.99331 0.00880955 57 4 1 2.83442e-06 
-0.397685 -0.621987 -3.0734 0.0025 0.573952 0.459718 2.00225 0.00871153 58 4 1 2.86433e-06 
-0.393355 -0.608942 -3.30828 0.0025 0.580966 0.467589 2.012 0.00860636 59 4 1 2.65169e-06 
-0.389079 -0.595478 -3.39929 0.0025 0.58832 0.475885 2.02215 0.00849878 60 4 1 2.41265e-06 
-0.384856 -0.581952 -3.43447 0.0025 0.595797 0.484367 2.03238 0.00839211 61 4 1 2.18257e-06 
-0.380686 -0.568599 -3.40363 0.0025 0.603258 0.492872 2.04252 0.00828833 62 4 1 1.93336e-06 
-0.376567 -0.555651 -3.33232 0.0025 0.610589 0.501275 2.05241 0.00818881 63 4 1 1.77097e-06 
-0.372497 -0.543141 -3.27665 0.0025 0.617758 0.509531 2.06201 0.00809379 64 4 1 1.62916e-06 
-0.368473 -0.531062 -3.19695 0.0025 0.624751 0.517622 2.07131 0.00800319 65 4 1 1.49571e-06 
-0.364494 -0.519431 -3.12232 0.0025 0.631558 0.525535 2.08031 0.00791693 66 4 1 1.43469e-06 
-0.360556 -0.508129 -3.06972 0.0025 0.638212 0.533305 2.08904 0.00783439 67 4 1 1.46964e-06 
-0.356659 -0.497076 -3.07358 0.0025 0.644789 0.541019 2.09762 0.00775447 68 4 1 1.54321e-06 
-0.352801 -0.486099 -3.10015 0.0025 0.651374 0.548773 2.10616 0.00767608 69 4 1 1.67869e-06 
-0.348983 -0.475033 -3.20067 0.0025 0.658059 0.556678 2.11478 0.0075981 70 4 1 1.81455e-06 
-0.345203 -0.46373 -3.30483 0.0025 0.66492 0.56482 2.12357 0.00751971 71 4 1 1.89522e-06 
-0.341463 -0.452234 -3.41864 0.0025 0.671973 0.573225 2.13255 0.00744078 72 4 1 1.96974e-06 
-0.337762 -0.440449 -3.53649 0.0025 0.679227 0.581905 2.14172 0.00736131 73 4 1 1.97465e-06 
-0.334101 -0.428503 -3.61566 0.0025 0.686647 0.59082 2.15105 0.00728176 74 4 1 1.90757e-06 
-0.33048 -0.416538 -3.65346 0.0025 0.694165 0.599894 2.16044 0.0072029 75 4 1 1.8908e-06 
-0.326898 -0.404533 -3.71755 0.0025 0.701757 0.609098 2.16986 0.00712497 76 4 1 1.86389e-06 
-0.323355 -0.392574 -3.74506 0.0025 0.709406 0.618409 2.17928 0.00704815 77 4 1 1.77728e-06 
-0.31985 -0.380685 -3.74843 0.0025 0.71706 0.62777 2.18866 0.00697292 78 4 1 1.74035e-06 
-0.316382 -0.368924 -3.77152 0.0025 0.724711 0.637165 2.19797 0.0068993 79 4 1 1.69187e-06 
-0.31295 -0.357275 -3.76495 0.0025 0.732348 0.646584 2.2072 0.00682736 80 4 1 1.64569e-06 
-0.309554 -0.345765 -3.77574 0.0025 0.739962 0.656015 2.21635 0.00675711 81 4 1 1.6427e-06 
-0.306193 -0.334359 -3.79879 0.0025 0.747573 0.66548 2.22544 0.00668831 82 4 1 1.59073e-06 
-0.302866 -0.323042 -3.79098 0.0025 0.755168 0.674963 2.23445 0.00662104 83 4 1 1.54699e-06 
-0.299572 -0.311909 -3.80022 0.0025 0.762737 0.684452 2.24338 0.00655534 84 4 1 1.51188e-06 
-0.29631 -0.300833 -3.79407 0.0025 0.77028 0.693946 2.25223 0.00649115 85 4 1 1.47851e-06 
-0.29308 -0.289953 -3.80087 0.0025 0.777797 0.703445 2.26099 0.00642842 86 4 1 1.47252e-06 
-0.289882 -0.279105 -3.81824 0.0025 0.785305 0.712969 2.26969 0.00636696 87 4 1 1.44058e-06 
-0.286713 -0.268399 -3.82021 0.0025 0.792801 0.722514 2.27833 0.00630675 88 4 1 1.4066e-06 
-0.283575 -0.257762 -3.82794 0.0025 0.800279 0.732071 2.2869 0.00624782 89 4 1 1.36219e-06 
-0.280465 -0.247293 -3.81614 0.0025 0.807728 0.741629 2.29539 0.00619021 90 4 1 1.35716e-06 
-0.277384 -0.236886 -3.84417 0.0025 0.815161 0.7512 2.30382 0.00613376 91 4 1 1.28811e-06 
-0.274331 -0.226626 -3.79434 0.0025 0.822556 0.760759 2.31215 0.00607861 92 4 1 1.32093e-06 
-0.271306 -0.216471 -3.87516 0.0025 0.829948 0.770347 2.32044 0.00602448 93 4 1 1.30117e-06 
-0.268307 -0.206279 -3.83673 0.0025 0.837345 0.779972 2.32869 0.00597126 94 4 1 1.2013e-06 
-0.265334 -0.196366 -3.8262 0.0025 0.844686 0.789566 2.33683 0.00591936 95 4 1 1.27758e-06 
-0.262387 -0.186384 -3.89966 0.0025 0.852043 0.799207 2.34495 0.00586825 96 4 1 1.15991e-06 
-0.259466 -0.176578 -3.79406 0.0025 0.859354 0.808822 2.35298 0.00581832 97 4 1 1.11782e-06 
-0.256569 -0.167034 -3.8351 0.0025 0.866599 0.818391 2.36089 0.00576968 98 4 1 1.26181e-06 
-0.253696 -0.157288 -3.92584 0.0025 0.873906 0.828062 2.36884 0.00572144 99 4 1 1.07343e-06 
-0.250847 -0.147756 -3.77578 0.0025 0.881157 0.837695 2.37668 0.00567436 100 4 1 1.0866e-06 
-0.248022 -0.138451 -3.88716 0.0025 0.88836 0.847306 2.38443 0.00562835 101 4 1 1.24685e-06 
-0.245219 -0.128869 -3.96385 0.0025 0.895657 0.857055 2.39225 0.0055825 102 4 1 9.27232e-07 
-0.242439 -0.119605 -3.72498 0.0025 0.902825 0.86667 2.39988 0.00553817 103 4 1 9.08869e-07 
-0.239681 -0.110771 -3.79644 0.0025 0.909863 0.876158 2.40734 0.00549533 104 4 1 1.26504e-06 
-0.236944 -0.101502 -4.02907 0.0025 0.917064 0.885874 2.41496 0.00545218 105 4 1 9.62725e-07 
-0.234228 -0.0923679 -3.75366 0.0025 0.924219 0.895552 2.42247 0.00540997 106 4 1 7.05074e-07 
-0.231534 -0.0838881 -3.66963 0.0025 0.931132 0.904964 2.42969 0.00536981 107 4 1 1.25341e-06 
-0.228859 -0.0749832 -4.10786 0.0025 0.938244 0.914655 2.43711 0.00532911 108 4 1 1.12151e-06 
-0.226204 -0.0657712 -3.90768 0.0025 0.945473 0.924513 2.44461 0.00528836 109 4 1 5.44287e-07 
-0.22357 -0.0573945 -3.61108 0.0025 0.952343 0.933935 2.45169 0.00525021 110 4 1 6.11414e-07 
-0.220954 -0.0493402 -3.56525 0.0025 0.95896 0.943041 2.45848 0.00521398 111 4 1 8.76912e-07 
-0.218356 -0.0413261 -3.68933 0.0025 0.965619 0.952239 2.46529 0.00517802 112 4 1 1.38324e-06 
-0.215776 -0.0327378 -4.26172 0.0025 0.972687 0.962013 2.47251 0.0051404 113 4 1 1.12766e-06 
-0.213216 -0.0235018 -4.05007 0.0025 0.979892 0.97194 2.47986 0.0051026 114 4 1 -6.93657e-07 
-0.210673 -0.0164566 -2.34206 0.0025 0.985852 0.98022 2.48583 0.00507176 115 4 1 -1.59341e-07 
-0.208144 -0.0112751 -2.91034 0.0025 0.991113 0.987679 2.49106 0.00504483 116 4 1 3.18537e-06 
-0.205629 -0.00221631 -5.7021 0.0025 0.998394 0.997841 2.49846 0.00500804 117 4 1 1.66998e-06 
-0.203136 0.00890255 -4.2623 0.0025 1.00633 1.00875 2.50649 0.00496857 118 4 1 -3.71641e-06 
-0.20066 0.0132912 -0.104203 0.0025 1.01039 1.01446 2.5104 0.00494857 119 4 1 -1.9557e-06 
-0.198187 0.0129395 -0.546781 0.0025 1.01215 1.0172 2.51202 0.00493999 120 4 1 4.18958e-06 
-0.19572 0.0200479 -5.58596 0.0025 1.01734 1.02447 2.51732 0.00491477 121 4 1 1.39296e-06 
-0.193272 0.0294038 -2.85448 0.0025 1.02366 1.03313 2.52365 0.00488443 122 4 1 -3.9791e-06 
-0.190835 0.0311062 0.301095 0.0025 1.02572 1.03607 2.52561 0.00487461 123 3 1 -2.53655e-06 
-0.188398 0.0296218 0.984711 0.0025 1.0246 1.03459 2.52447 0.00487994 124 4 1 -6.8653e-07 
-0.185955 0.0272119 1.26379 0.0025 1.02256 1.03173 2.52245 0.00488968 125 4 1 -1.61196e-07 
-0.183508 0.0244774 1.35892 0.0025 1.02022 1.02843 2.52013 0.00490091 126 4 1 1.69002e-08 
-0.181055 0.021621 1.39597 0.0025 1.01778 1.02499 2.51771 0.00491267 127 4 1 9.65414e-08 
-0.178595 0.0187338 1.39703 0.0025 1.01532 1.02153 2.51527 0.00492453 128 4 1 1.50453e-07 
-0.17613 0.0158858 1.36597 0.0025 1.01293 1.01816 2.51289 0.00493619 129 4 1 1.99067e-07 
-0.173659 0.0131496 1.29927 0.0025 1.01064 1.01495 2.51062 0.00494734 130 4 1 2.42281e-07 
-0.171183 0.0106014 1.19621 0.0025 1.00854 1.01199 2.50852 0.00495767 131 4 1 2.73928e-07 
-0.168701 0.00831034 1.06187 0.0025 1.00666 1.00935 2.50665 0.00496691 132 4 1 2.88305e-07 
-0.166216 0.00632727 0.906823 0.0025 1.00505 1.00709 2.50504 0.00497487 133 4 1 2.83495e-07 
-0.163726 0.00467657 0.744502 0.0025 1.00372 1.00522 2.50371 0.00498147 134 4 1 2.61836e-07 
-0.161234 0.00335511 0.587894 0.0025 1.00266 1.00374 2.50265 0.00498673 135 4 1 2.28501e-07 
-0.15874 0.00233677 0.447012 0.0025 1.00185 1.0026 2.50184 0.00499078 136 4 1 1.895e-07 
-0.156244 0.00158033 0.327758 0.0025 1.00125 1.00175 2.50124 0.00499377 137 4 1 1.501e-07 
-0.153746 0.00103794 0.23207 0.0025 1.00082 1.00115 2.50081 0.00499591 138 4 1 1.14021e-07 
-0.151248 0.000662037 0.158871 0.0025 1.00052 1.00073 2.50052 0.0049974 139 4 1 8.33291e-08 
-0.148749 0.000409975 0.105243 0.0025 1.00032 1.00045 2.50032 0.00499839 140 4 1 5.8721e-08 
-0.146249 0.000246345 0.067492 0.0025 1.00019 1.00027 2.50019 0.00499903 141 4 1 3.99592e-08 
-0.14375 0.000143493 0.041899 0.0025 1.00011 1.00016 2.50011 0.00499944 142 4 1 2.62791e-08 
-0.14125 8.09136e-05 0.0251663 0.0025 1.00006 1.00009 2.50006 0.00499968 143 4 1 1.67053e-08 
-0.13875 4.40866e-05 0.0146099 0.0025 1.00003 1.00005 2.50003 0.00499983 144 4 1 1.02612e-08 
-0.13625 2.31528e-05 0.0081844 0.0025 1.00002 1.00003 2.50002 0.00499991 145 4 1 6.085e-09 
-0.13375 1.16809e-05 0.00441417 0.0025 1.00001 1.00001 2.50001 0.00499995 146 4 1 3.47864e-09 
-0.13125 5.63621e-06 0.0022849 0.0025 1 1.00001 2.5 0.00499998 147 4 1 1.91311e-09 
-0.12875 2.5851e-06 0.0011302 0.0025 1 1 2.5 0.00499999 148 4 1 1.00921e-09 
-0.12625 1.11722e-06 0.000530973 0.0025 1 1 2.5 0.005 149 4 1 5.08599e-10 
-0.12375 4.48965e-07 0.000234827 0.0025 1 1 2.5 0.005 150 4 1 2.43468e-10 
-0.12125 1.64181e-07 9.64238e-05 0.0025 1 1 2.5 0.005 151 4 1 1.09788e-10 
-0.11875 5.252e-08 3.59075e-05 0.0025 1 1 2.5 0.005 152 4 1 4.60352e-11 
-0.11625 1.34675e-08 1.15904e-05 0.0025 1 1 2.5 0.005 153 4 1 1.75344e-11 
-0.11375 2.05795e-09 2.87423e-06 0.0025 1 1 2.5 0.005 154 4 1 5.91373e-12 
-0.11125 -2.30801e-10 1.92766e-07 0.0025 1 1 2.5 0.005 155 4 1 1.57858e-12 
-0.10875 1.58799e-10 -3.08882e-07 0.0025 1 1 2.5 0.005 156 5 1 4.28038e-14 
-0.10625 3.59529e-10 -5.34124e-09 0.0025 1 1 2.5 0.005 157 3 1 -1.66202e-13 
-0.10375 2.81257e-10 5.74412e-08 0.0025 1 1 2.5 0.005 158 4 1 -2.06619e-14 
-0.10125 1.66984e-10 5.46212e-08 0.0025 1 1 2.5 0.005 159 4 1 1.9585e-14 
-0.09875 8.33515e-11 3.48218e-08 0.0025 1 1 2.5 0.005 160 4 1 2.25391e-14 
-0.09625 3.5832e-11 1.82134e-08 0.0025 1 1 2.5 0.005 161 4 1 1.54191e-14 
-0.09375 1.31142e-11 8.06006e-09 0.0025 1 1 2.5 0.005 162 4 1 8.35136e-15 
-0.09125 3.8773e-12 2.99576e-09 0.0025 1 1 2.5 0.005 163 4 1 3.80957e-15 
-0.08875 7.78981e-13 8.75275e-10 0.0025 1 1 2.5 0.005 164 4 1 1.45164e-15 
-0.08625 -3.81018e-15 1.62061e-10 0.0025 1 1 2.5 0.005 165 4 1 4.61142e-16 
-0.08375 -1.64575e-14 -6.4631e-11 0.0025 1 1 2.5 0.005 166 5 1 6.64357e-17 
-0.08125 3.6653e-14 -1.31877e-11 0.0025 1 1 2.5 0.005 167 4 1 -3.41061e-17 
-0.07875 3.76444e-14 5.22959e-12 0.0025 1 1 2.5 0.005 168 3 1 -2.84217e-18 
-0.07625 2.10411e-14 1.03455e-11 0.0025 1 1 2.5 0.005 169 4 1 -5.68434e-18 
-0.07375 2.06268e-15 7.56017e-12 0.0025 1 1 2.5 0.005 170 4 1 1.49214e-17 
-0.07125 1.1927e-15 -5.68434e-13 0.0025 1 1 2.5 0.005 171 5 1 -9.59233e-18 
-0.06875 1.65748e-16 -1.13687e-13 0.0025 1 1 2.5 0.005 172 5 1 1.10134e-17 
-0.06625 1.98106e-15 -5.68434e-14 0.0025 1 1 2.5 0.005 173 5 1 -1.59872e-17 
-0.06375 1.07379e-15 -1.66252e-26 0.0025 1 1 2.5 0.005 174 4 1 -2.13163e-18 
-0.06125 -1.5196e-15 5.76855e-27 0.0025 1 1 2.5 0.005 175 3 1 3.09086e-17 
-0.05875 3.00261e-15 2.27374e-13 0.0025 1 1 2.5 0.005 176 4 1 -2.4869e-17 
-0.05625 1.30698e-15 5.68434e-14 0.0025 1 1 2.5 0.005 177 5 1 2.13163e-18 
-0.05375 1.04689e-15 -5.68434e-14 0.0025 1 1 2.5 0.005 178 4 1 3.55271e-19 
-0.05125 -3.3635e-16 1.38051e-27 0.0025 1 1 2.5 0.005 179 5 1 -1.42109e-18 
-0.04875 1.62574e-15 -5.68434e-14 0.0025 1 1 2.5 0.005 180 5 1 -3.90799e-18 
-0.04625 -1.61695e-16 -1.7053e-13 0.0025 1 1 2.5 0.005 181 5 1 3.19744e-18 
-0.04375 -1.1313e-15 6.72623e-44 0.0025 1 1 2.5 0.005 182 5 1 -7.4607e-18 
-0.04125 -1.55684e-15 3.9443e-29 0.0025 1 1 2.5 0.005 183 5 1 3.55271e-18 
-0.03875 -1.27244e-15 -6.25278e-13 0.0025 1 1 2.5 0.005 184 5 1 -5.32907e-18 
-0.03625 -6.13856e-16 1.7053e-13 0.0025 1 1 2.5 0.005 185 4 1 -1.20792e-17 
-0.03375 -2.18294e-15 6.82121e-13 0.0025 1 1 2.5 0.005 186 4 1 -4.61853e-18 
-0.03125 9.15166e-16 2.07076e-26 0.0025 1 1 2.5 0.005 187 3 1 4.83169e-17 
-0.02875 -5.89426e-16 -1.13687e-13 0.0025 1 1 2.5 0.005 188 4 1 -3.97904e-17 
-0.02625 -7.98699e-16 1.13687e-13 0.0025 1 1 2.5 0.005 189 5 1 9.23706e-18 
-0.02375 -1.31477e-15 5.68434e-14 0.0025 1 1 2.5 0.005 190 3 1 -1.77636e-18 
-0.02125 6.78407e-17 -6.25278e-13 0.0025 1 1 2.5 0.005 191 4 1 4.61853e-18 
-0.01875 -1.89591e-15 9.66338e-13 0.0025 1 1 2.5 0.005 192 4 1 -7.81597e-18 
-0.01625 -1.75614e-16 -1.7053e-13 0.0025 1 1 2.5 0.005 193 5 1 4.26326e-18 
-0.01375 -1.65465e-15 -7.95808e-13 0.0025 1 1 2.5 0.005 194 3 1 3.55271e-19 
-0.01125 -1.08092e-15 1.3074e-12 0.0025 1 1 2.5 0.005 195 4 1 -1.42109e-18 
-0.00875 -1.24685e-15 -7.95808e-13 0.0025 1 1 2.5 0.005 196 5 1 -3.55271e-19 
-0.00625 -7.96084e-16 3.97904e-13 0.0025 1 1 2.5 0.005 197 3 1 -7.10543e-19 
-0.00375 -1.68314e-16 -4.54747e-13 0.0025 1 1 2.5 0.005 198 3 1 -1.06581e-18 
-0.00125 8.56273e-17 1.7053e-13 0.0025 1 1 2.5 0.005 199 4 1 1.2326e-33 
0.00125 -1.30011e-16 5.68434e-14 0.0025 1 1 2.5 0.005 200 3 1 3.55271e-19 
0.00375 -3.14915e-16 -9.86076e-30 0.0025 1 1 2.5 0.005 201 4 1 1.2326e-33 
0.00625 -1.23039e-16 5.68434e-14 0.0025 1 1 2.5 0.005 202 4 1 -1.06581e-18 
0.00875 1.52323e-15 4.54747e-13 0.0025 1 1 2.5 0.005 203 4 1 3.55271e-19 
0.01125 9.21696e-16 2.27374e-13 0.0025 1 1 2.5 0.005 204 5 1 2.4869e-18 
0.01375 8.52063e-16 -6.82121e-13 0.0025 1 1 2.5 0.005 205 5 1 -4.61853e-18 
0.01625 2.24915e-15 7.38964e-13 0.0025 1 1 2.5 0.005 206 4 1 -1.06581e-18 
0.01875 1.79715e-15 -5.68434e-14 0.0025 1 1 2.5 0.005 207 4 1 1.06581e-18 
0.02125 2.83077e-15 2.84217e-13 0.0025 1 1 2.5 0.005 208 3 1 -1.42109e-18 
0.02375 2.2479e-15 -3.41061e-13 0.0025 1 1 2.5 0.005 209 4 1 1.1724e-17 
0.02625 1.71015e-15 7.95808e-13 0.0025 1 1 2.5 0.005 210 5 1 -2.16716e-17 
0.02875 1.63167e-15 -1.13687e-13 0.0025 1 1 2.5 0.005 211 4 1 1.27898e-17 
0.03125 1.19411e-15 -4.54747e-13 0.0025 1 1 2.5 0.005 212 3 1 7.4607e-18 
0.03375 4.63987e-15 1.24048e-26 0.0025 1 1 2.5 0.005 213 4 1 1.06581e-18 
0.03625 1.05098e-15 -5.68434e-14 0.0025 1 1 2.5 0.005 214 5 1 -1.88294e-17 
0.03875 3.00315e-15 0 0.0025 1 1 2.5 0.005 215 3 1 1.98952e-17 
0.04125 1.20535e-15 -5.68434e-14 0.0025 1 1 2.5 0.005 216 4 1 -9.9476e-18 
0.04375 2.30663e-15 -1.13687e-13 0.0025 1 1 2.5 0.005 217 4 1 -9.23706e-18 
0.04625 2.73672e-15 0 0.0025 1 1 2.5 0.005 218 3 1 1.49214e-17 
0.04875 2.54261e-15 -1.7053e-13 0.0025 1 1 2.5 0.005 219 4 1 -7.81597e-18 
0.05125 2.01807e-15 -1.7053e-13 0.0025 1 1 2.5 0.005 220 4 1 -7.4607e-18 
0.05375 2.44733e-15 3.97904e-13 0.0025 1 1 2.5 0.005 221 3 1 1.3145e-17 
0.05625 4.02793e-15 -1.87583e-12 0.0025 1 1 2.5 0.005 222 5 1 1.59872e-17 
0.05875 5.5032e-15 1.3074e-12 0.0025 1 1 2.5 0.005 223 5 1 -8.88178e-17 
0.06125 -2.14273e-15 -6.82121e-13 0.0025 1 1 2.5 0.005 224 3 1 8.88178e-17 
0.06375 6.56532e-15 5.11591e-13 0.0025 1 1 2.5 0.005 225 4 1 -6.39488e-18 
0.06625 2.71341e-16 3.41061e-13 0.0025 1 1 2.5 0.005 226 5 1 -3.01981e-17 
0.06875 4.16523e-15 2.27374e-13 0.0025 1 1 2.5 0.005 227 5 1 1.91847e-17 
0.07125 1.74343e-15 4.54747e-13 0.0025 1 1 2.5 0.005 228 5 1 -1.74083e-17 
