# Time [s]: 0.243892
# Columns: pos [m], vel [m/s], acc [m/s^2], mass [kg], dens [kg/m^3], pres [Pa], ene [J/kg], sml [m], id, neighbor, alpha, gradh, ...additional?
1.33806 -0.673131 0.000702917 0.0025 0.511026 0.432698 2.15246 0.00978423 0 4 1 -0.000134225 
1.34285 -0.673136 0.000740092 0.0025 0.536881 0.42616 1.95 0.00931305 1 4 1 0.000179248 
1.34738 -0.673142 0.000800807 0.0025 0.548209 0.430828 1.96846 0.00912061 2 3 1 -1.90586e-05 
1.35197 -0.673149 0.000893522 0.0025 0.545942 0.429161 1.9646 0.00915848 3 5 1 3.48578e-06 
1.35654 -0.673155 0.00101518 0.0025 0.546339 0.429314 1.96453 0.00915183 4 4 1 -1.3899e-07 
1.36112 -0.673162 0.00115693 0.0025 0.546347 0.429282 1.9643 0.00915169 5 4 1 1.43346e-07 
1.36569 -0.673169 0.00130813 0.0025 0.546368 0.429278 1.96424 0.00915134 6 4 1 -3.9247e-09 
1.37027 -0.673177 0.0014612 0.0025 0.546378 0.429272 1.96417 0.00915117 7 4 1 7.80532e-09 
1.37485 -0.673184 0.00161589 0.0025 0.546389 0.429268 1.96411 0.00915099 8 4 1 4.32105e-09 
1.37942 -0.673192 0.00178061 0.0025 0.546398 0.429264 1.96406 0.00915084 9 4 1 4.99954e-09 
1.384 -0.673201 0.0019675 0.0025 0.546405 0.429259 1.96401 0.00915072 10 4 1 -2.77366e-09 
1.38857 -0.67321 0.00218057 0.0025 0.546412 0.429253 1.96396 0.00915061 11 4 1 4.13347e-09 
1.39315 -0.67322 0.00240567 0.0025 0.546417 0.429247 1.96392 0.00915052 12 4 1 2.23033e-09 
1.39772 -0.67323 0.00261588 0.0025 0.54642 0.429241 1.96388 0.00915046 13 4 1 2.9802e-09 
1.4023 -0.673241 0.00279649 0.0025 0.546422 0.429234 1.96384 0.00915043 14 4 1 1.5767e-09 
1.40687 -0.673253 0.00297017 0.0025 0.546423 0.429226 1.9638 0.00915042 15 4 1 -2.13609e-09 
1.41145 -0.673267 0.00319103 0.0025 0.546423 0.429218 1.96376 0.00915041 16 3 1 4.22148e-09 
1.41602 -0.673281 0.00349993 0.0025 0.546422 0.429209 1.96373 0.00915044 17 4 1 5.99584e-10 
1.4206 -0.673297 0.00387888 0.0025 0.546419 0.4292 1.96369 0.00915048 18 4 1 -2.22959e-09 
1.42517 -0.673314 0.00425938 0.0025 0.546416 0.429189 1.96366 0.00915054 19 4 1 1.64446e-09 
1.42975 -0.673333 0.00459277 0.0025 0.546411 0.429178 1.96362 0.00915063 20 4 1 1.70052e-10 
1.43432 -0.673354 0.0049166 0.0025 0.546404 0.429165 1.96359 0.00915074 21 4 1 1.46098e-10 
1.4389 -0.673377 0.00533726 0.0025 0.546396 0.429151 1.96355 0.00915087 22 4 1 -2.56233e-10 
1.44347 -0.673403 0.00593023 0.0025 0.546387 0.429137 1.96352 0.00915102 23 4 1 -1.89318e-09 
1.44805 -0.673431 0.00665945 0.0025 0.546376 0.42912 1.96348 0.00915121 24 4 1 -5.70971e-10 
1.45263 -0.673461 0.00741458 0.0025 0.546363 0.429102 1.96345 0.00915143 25 4 1 -1.43529e-09 
1.4572 -0.673495 0.00813935 0.0025 0.546348 0.429081 1.96341 0.00915168 26 4 1 -2.57908e-09 
1.46178 -0.673533 0.0089087 0.0025 0.54633 0.429058 1.96337 0.00915197 27 4 1 -1.22108e-09 
1.46635 -0.673576 0.00986454 0.0025 0.546311 0.429033 1.96332 0.0091523 28 4 1 -2.10368e-09 
1.47093 -0.673624 0.0110893 0.0025 0.546288 0.429005 1.96328 0.00915268 29 4 1 -4.4444e-09 
1.47551 -0.673678 0.0125603 0.0025 0.546262 0.428974 1.96322 0.00915311 30 4 1 -3.85914e-09 
1.48008 -0.673737 0.0142081 0.0025 0.546233 0.428939 1.96317 0.00915361 31 4 1 -2.96293e-09 
1.48466 -0.673804 0.0159917 0.0025 0.546198 0.428898 1.96311 0.00915418 32 4 1 -6.26989e-09 
1.48924 -0.673879 0.0179209 0.0025 0.546159 0.428853 1.96304 0.00915484 33 4 1 -6.74731e-09 
1.49381 -0.673965 0.0200514 0.0025 0.546116 0.428802 1.96297 0.00915557 34 4 1 -4.4479e-09 
1.49839 -0.674062 0.022504 0.0025 0.546066 0.428745 1.96289 0.00915641 35 4 1 -7.68383e-09 
-0.497029 -0.674173 0.0254621 0.0025 0.546009 0.428681 1.96279 0.00915735 36 4 1 -9.56089e-09 
-0.49245 -0.674297 0.0290322 0.0025 0.545946 0.428609 1.96269 0.00915842 37 4 1 -8.39966e-09 
-0.48787 -0.674434 0.0329752 0.0025 0.545873 0.428528 1.96258 0.00915963 38 4 1 -9.88266e-09 
-0.48329 -0.674584 0.036571 0.0025 0.545792 0.428437 1.96246 0.00916099 39 4 1 -8.94619e-09 
-0.478709 -0.674751 0.0391742 0.0025 0.545704 0.428338 1.96232 0.00916248 40 4 1 -4.27562e-09 
-0.474128 -0.674935 0.0411657 0.0025 0.545611 0.428235 1.96218 0.00916404 41 4 1 -1.59447e-09 
-0.469545 -0.67513 0.0433136 0.0025 0.545516 0.428129 1.96204 0.00916563 42 4 1 9.40603e-11 
-0.464962 -0.675322 0.0444555 0.0025 0.545421 0.428023 1.96189 0.00916723 43 4 1 6.95285e-09 
-0.460378 -0.675501 0.0416451 0.0025 0.545331 0.427924 1.96176 0.00916874 44 4 1 2.00549e-08 
-0.455793 -0.675656 0.0345939 0.0025 0.545257 0.427841 1.96164 0.00916999 45 4 1 2.54689e-08 
-0.451208 -0.675764 0.0242408 0.0025 0.545204 0.427782 1.96156 0.00917088 46 4 1 3.9461e-08 
-0.446623 -0.675856 0.0158263 0.0025 0.545185 0.427763 1.96153 0.0091712 47 5 1 1.12362e-07 
-0.442037 -0.675746 -0.0601524 0.0025 0.545257 0.427842 1.96163 0.00916998 48 4 1 1.3308e-07 
-0.437453 -0.675417 -0.0714035 0.0025 0.54544 0.428046 1.96188 0.00916691 49 4 1 2.38933e-07 
-0.43287 -0.674908 -0.184095 0.0025 0.545821 0.428482 1.96242 0.00916051 50 4 1 7.65574e-07 
-0.428292 -0.673211 -0.605199 0.0025 0.546792 0.429564 1.96381 0.00914424 51 4 1 1.27742e-06 
-0.423726 -0.669569 -1.04829 0.0025 0.548661 0.431615 1.96649 0.0091131 52 4 1 1.30764e-06 
-0.419179 -0.664377 -1.32218 0.0025 0.551323 0.434542 1.9703 0.0090691 53 4 1 1.29199e-06 
-0.414657 -0.658186 -1.57624 0.0025 0.554624 0.438192 1.97501 0.00901512 54 4 1 1.6466e-06 
-0.410164 -0.650655 -1.95135 0.0025 0.558646 0.442657 1.98072 0.0089502 55 4 1 2.19513e-06 
-0.405706 -0.641464 -2.39598 0.0025 0.563551 0.44811 1.98765 0.00887232 56 4 1 2.65962e-06 
-0.401291 -0.630533 -2.83278 0.0025 0.569377 0.454605 1.99585 0.00878152 57 4 1 2.90459e-06 
-0.396924 -0.618151 -3.17773 0.0025 0.576009 0.462024 2.00512 0.00868041 58 4 1 2.83791e-06 
-0.39261 -0.60485 -3.35927 0.0025 0.583186 0.470089 2.01507 0.0085736 59 4 1 2.59672e-06 
-0.388351 -0.591287 -3.43132 0.0025 0.590627 0.478498 2.02531 0.00846557 60 4 1 2.36863e-06 
-0.384144 -0.577729 -3.44871 0.0025 0.598148 0.487042 2.03559 0.00835914 61 4 1 2.11823e-06 
-0.379991 -0.564426 -3.39669 0.0025 0.605609 0.495563 2.0457 0.00825615 62 4 1 1.88331e-06 
-0.375888 -0.551566 -3.32574 0.0025 0.61292 0.503955 2.05554 0.00815767 63 4 1 1.73819e-06 
-0.371833 -0.539127 -3.26631 0.0025 0.620061 0.512192 2.06508 0.00806373 64 4 1 1.59505e-06 
-0.367824 -0.527148 -3.18292 0.0025 0.627021 0.520257 2.07432 0.00797422 65 4 1 1.48546e-06 
-0.363859 -0.515601 -3.11926 0.0025 0.633803 0.528153 2.08326 0.00788889 66 4 1 1.44677e-06 
-0.359935 -0.50436 -3.07446 0.0025 0.640451 0.535928 2.09197 0.007807 67 4 1 1.49847e-06 
-0.356051 -0.493293 -3.09265 0.0025 0.647047 0.543675 2.10056 0.00772741 68 4 1 1.60231e-06 
-0.352207 -0.48227 -3.14209 0.0025 0.653686 0.551504 2.10915 0.00764893 69 4 1 1.74831e-06 
-0.348402 -0.471072 -3.25522 0.0025 0.660459 0.559523 2.11786 0.00757049 70 4 1 1.86082e-06 
-0.344637 -0.459644 -3.35524 0.0025 0.667418 0.567793 2.12676 0.00749156 71 4 1 1.94837e-06 
-0.34091 -0.447998 -3.48565 0.0025 0.674579 0.57634 2.13585 0.00741203 72 4 1 2.00253e-06 
-0.337224 -0.436079 -3.58572 0.0025 0.681937 0.585158 2.14514 0.00733205 73 4 1 1.96326e-06 
-0.333578 -0.424047 -3.64722 0.0025 0.689433 0.594179 2.15454 0.00725233 74 4 1 1.92167e-06 
-0.329972 -0.412028 -3.69812 0.0025 0.697019 0.60335 2.16399 0.00717341 75 4 1 1.89881e-06 
-0.326405 -0.399954 -3.74573 0.0025 0.704672 0.612642 2.17346 0.0070955 76 4 1 1.85501e-06 
-0.322876 -0.387962 -3.77175 0.0025 0.712365 0.622024 2.18292 0.00701887 77 4 1 1.77687e-06 
-0.319385 -0.376072 -3.77149 0.0025 0.720059 0.631448 2.19231 0.00694388 78 4 1 1.73639e-06 
-0.315932 -0.364283 -3.79185 0.0025 0.727742 0.640899 2.20164 0.00687057 79 4 1 1.69139e-06 
-0.312515 -0.352643 -3.7856 0.0025 0.735409 0.650371 2.21088 0.00679894 80 4 1 1.65433e-06 
-0.309133 -0.341116 -3.80204 0.0025 0.743057 0.65986 2.22005 0.00672896 81 4 1 1.64833e-06 
-0.305786 -0.329683 -3.82241 0.0025 0.750703 0.669384 2.22916 0.00666042 82 4 1 1.57759e-06 
-0.302472 -0.318384 -3.80257 0.0025 0.758323 0.678914 2.23818 0.00659349 83 4 1 1.55569e-06 
-0.299192 -0.307227 -3.83068 0.0025 0.765921 0.688455 2.24712 0.00652809 84 4 1 1.50663e-06 
-0.295944 -0.296174 -3.80144 0.0025 0.77349 0.697998 2.25598 0.00646421 85 4 1 1.48976e-06 
-0.292727 -0.285266 -3.83827 0.0025 0.781038 0.707553 2.26475 0.00640174 86 4 1 1.47821e-06 
-0.289542 -0.274412 -3.83168 0.0025 0.788582 0.717137 2.27348 0.0063405 87 4 1 1.43801e-06 
-0.286387 -0.263694 -3.84966 0.0025 0.796107 0.726736 2.28213 0.00628056 88 4 1 1.39811e-06 
-0.283261 -0.253061 -3.83417 0.0025 0.803609 0.73634 2.2907 0.00622193 89 4 1 1.37038e-06 
-0.280165 -0.242589 -3.85141 0.0025 0.811085 0.745948 2.2992 0.00616458 90 4 1 1.34852e-06 
-0.277097 -0.232168 -3.84381 0.0025 0.818543 0.755566 2.30764 0.00610842 91 4 1 1.29607e-06 
-0.274056 -0.221949 -3.83368 0.0025 0.825964 0.765176 2.31598 0.00605353 92 4 1 1.35256e-06 
-0.271043 -0.211692 -3.90773 0.0025 0.833405 0.774841 2.3243 0.00599949 93 4 1 1.25166e-06 
-0.268057 -0.201583 -3.8208 0.0025 0.840814 0.784501 2.33254 0.00594662 94 4 1 1.24294e-06 
-0.265096 -0.191626 -3.89916 0.0025 0.848192 0.794157 2.34071 0.00589489 95 4 1 1.25995e-06 
-0.262162 -0.181612 -3.8718 0.0025 0.855577 0.803848 2.34884 0.00584401 96 4 1 1.10143e-06 
-0.259252 -0.171926 -3.79704 0.0025 0.862872 0.813465 2.35683 0.0057946 97 4 1 1.23151e-06 
-0.256367 -0.162264 -3.93652 0.0025 0.870184 0.823133 2.3648 0.00574591 98 4 1 1.21003e-06 
-0.253506 -0.1525 -3.87256 0.0025 0.877524 0.832862 2.37276 0.00569785 99 4 1 1.02259e-06 
-0.250669 -0.143113 -3.80541 0.0025 0.884761 0.842502 2.38056 0.00565124 100 4 1 1.22506e-06 
-0.247855 -0.133606 -4 0.0025 0.892054 0.852239 2.38839 0.00560504 101 4 1 1.1312e-06 
-0.245064 -0.124061 -3.86335 0.0025 0.899356 0.862009 2.3962 0.00555953 102 4 1 8.22923e-07 
-0.242295 -0.115058 -3.70738 0.0025 0.906448 0.871552 2.40373 0.00551604 103 4 1 1.14852e-06 
-0.239548 -0.105989 -3.99355 0.0025 0.913595 0.881193 2.41129 0.00547289 104 4 1 1.19721e-06 
-0.236822 -0.0966024 -3.93471 0.0025 0.92086 0.891001 2.41895 0.0054297 105 4 1 7.22018e-07 
-0.234118 -0.0878454 -3.64086 0.0025 0.927889 0.900543 2.42631 0.00538858 106 4 1 1.00049e-06 
-0.231433 -0.0792268 -3.9417 0.0025 0.934902 0.910103 2.43363 0.00534816 107 4 1 1.34304e-06 
-0.22877 -0.0699091 -4.12469 0.0025 0.942189 0.92003 2.44121 0.00530679 108 4 1 7.36984e-07 
-0.226127 -0.0611194 -3.68345 0.0025 0.949274 0.929719 2.44853 0.00526718 109 4 1 5.04946e-07 
-0.223502 -0.0529806 -3.59083 0.0025 0.955977 0.938934 2.45543 0.00523025 110 4 1 7.93944e-07 
-0.220896 -0.0449393 -3.62333 0.0025 0.962623 0.948098 2.46223 0.00519414 111 4 1 1.1831e-06 
-0.218308 -0.036596 -4.04181 0.0025 0.969541 0.957666 2.4693 0.00515708 112 4 1 1.44064e-06 
-0.215739 -0.0274007 -4.35898 0.0025 0.97685 0.967746 2.47677 0.00511849 113 4 1 9.74212e-09 
-0.21319 -0.0191454 -3.00339 0.0025 0.983434 0.97684 2.48342 0.00508423 114 4 1 -8.44407e-07 
-0.210655 -0.0137509 -2.25963 0.0025 0.988712 0.984281 2.48866 0.00505709 115 4 1 2.02756e-06 
-0.208132 -0.00655251 -4.82194 0.0025 0.995102 0.993273 2.49511 0.00502461 116 4 1 3.15379e-06 
-0.20563 0.00488109 -5.54758 0.0025 1.00338 1.00468 2.50352 0.00498317 117 4 1 -1.97426e-06 
-0.203149 0.0123497 -1.3604 0.0025 1.00924 1.01279 2.50933 0.00495424 118 4 1 -3.80426e-06 
-0.200676 0.0126086 0.658321 0.0025 1.01111 1.01565 2.51101 0.00494506 119 4 1 2.3358e-06 
-0.198204 0.0161222 -4.44187 0.0025 1.01478 1.02093 2.5147 0.00492717 120 4 1 3.87732e-06 
-0.195749 0.0266388 -4.7135 0.0025 1.02161 1.03031 2.52163 0.00489422 121 4 1 -2.83281e-06 
-0.19331 0.0312342 -0.403005 0.0025 1.02556 1.03579 2.52548 0.0048754 122 3 1 -3.60001e-06 
-0.190873 0.0304503 0.819424 0.0025 1.02528 1.03552 2.52515 0.00487671 123 4 1 -1.13836e-06 
-0.188433 0.0282667 1.19253 0.0025 1.02346 1.033 2.52334 0.00488537 124 4 1 -3.01622e-07 
-0.185988 0.0256163 1.33476 0.0025 1.02119 1.0298 2.52109 0.00489623 125 4 1 -2.98358e-08 
-0.183537 0.0227906 1.38744 0.0025 1.01877 1.02639 2.5187 0.00490786 126 4 1 7.03376e-08 
-0.18108 0.0199035 1.4022 0.0025 1.01631 1.02293 2.51626 0.00491974 127 4 1 1.28956e-07 
-0.178617 0.0170259 1.38551 0.0025 1.01388 1.0195 2.51384 0.00493154 128 4 1 1.7926e-07 
-0.176148 0.0142282 1.33436 0.0025 1.01154 1.0162 2.51151 0.00494296 129 4 1 2.26185e-07 
-0.173674 0.0115872 1.24584 0.0025 1.00935 1.01313 2.50933 0.00495369 130 4 1 2.64364e-07 
-0.171195 0.00917796 1.12244 0.0025 1.00737 1.01034 2.50735 0.00496343 131 4 1 2.8685e-07 
-0.168711 0.00706133 0.972992 0.0025 1.00564 1.00792 2.50563 0.00497194 132 4 1 2.8984e-07 
-0.166223 0.00527341 0.810558 0.0025 1.0042 1.0059 2.50419 0.00497909 133 4 1 2.74134e-07 
-0.163732 0.00382178 0.649007 0.0025 1.00303 1.00426 2.50303 0.00498488 134 4 1 2.4421e-07 
-0.161238 0.00268812 0.499969 0.0025 1.00213 1.00299 2.50212 0.00498938 135 4 1 2.06175e-07 
-0.158742 0.00183543 0.371098 0.0025 1.00145 1.00204 2.50145 0.00499276 136 4 1 1.65879e-07 
-0.156245 0.00121682 0.265794 0.0025 1.00096 1.00135 2.50096 0.00499521 137 4 1 1.27769e-07 
-0.153747 0.000783322 0.183948 0.0025 1.00062 1.00087 2.50061 0.00499692 138 4 1 9.45599e-08 
-0.151248 0.000489556 0.123134 0.0025 1.00039 1.00054 2.50038 0.00499808 139 4 1 6.74182e-08 
-0.148749 0.000296897 0.0797724 0.0025 1.00023 1.00033 2.50023 0.00499883 140 4 1 4.63882e-08 
-0.146249 0.000174578 0.050023 0.0025 1.00014 1.00019 2.50014 0.00499931 141 4 1 3.08352e-08 
-0.14375 9.94067e-05 0.0303508 0.0025 1.00008 1.00011 2.50008 0.00499961 142 4 1 1.9809e-08 
-0.14125 5.4719e-05 0.0178022 0.0025 1.00004 1.00006 2.50004 0.00499978 143 4 1 1.22964e-08 
-0.13875 2.90506e-05 0.0100799 0.0025 1.00002 1.00003 2.50002 0.00499989 144 4 1 7.37021e-09 
-0.13625 1.48299e-05 0.00549811 0.0025 1.00001 1.00002 2.50001 0.00499994 145 4 1 4.26003e-09 
-0.13375 7.24939e-06 0.00288066 0.0025 1.00001 1.00001 2.50001 0.00499997 146 4 1 2.37002e-09 
-0.13125 3.37451e-06 0.001444 0.0025 1 1 2.5 0.00499999 147 4 1 1.26572e-09 
-0.12875 1.48394e-06 0.000688704 0.0025 1 1 2.5 0.00499999 148 4 1 6.46486e-10 
-0.12625 6.09249e-07 0.000310032 0.0025 1 1 2.5 0.005 149 4 1 3.14167e-10 
-0.12375 2.29186e-07 0.000130131 0.0025 1 1 2.5 0.005 150 4 1 1.44174e-10 
-0.12125 7.64165e-08 4.99181e-05 0.0025 1 1 2.5 0.005 151 4 1 6.17601e-11 
-0.11875 2.10799e-08 1.68446e-05 0.0025 1 1 2.5 0.005 152 4 1 2.4235e-11 
-0.11625 3.93998e-09 4.5726e-06 0.0025 1 1 2.5 0.005 153 4 1 8.44138e-12 
-0.11375 -3.53545e-11 7.33421e-07 0.0025 1 1 2.5 0.005 154 4 1 2.47762e-12 
-0.11125 3.77892e-12 -4.18103e-07 0.0025 1 1 2.5 0.005 155 5 1 3.21539e-13 
-0.10875 3.726e-10 -5.66632e-08 0.0025 1 1 2.5 0.005 156 3 1 -2.12209e-13 
-0.10625 3.27862e-10 5.36096e-08 0.0025 1 1 2.5 0.005 157 4 1 -4.68525e-14 
-0.10375 2.06168e-10 6.1296e-08 0.0025 1 1 2.5 0.005 158 4 1 1.43572e-14 
-0.10125 1.07233e-10 4.25407e-08 0.0025 1 1 2.5 0.005 159 4 1 2.49056e-14 
-0.09875 4.78726e-11 2.31694e-08 0.0025 1 1 2.5 0.005 160 4 1 1.85175e-14 
-0.09625 1.8312e-11 1.07029e-08 0.0025 1 1 2.5 0.005 161 4 1 1.05466e-14 
-0.09375 5.75379e-12 4.17458e-09 0.0025 1 1 2.5 0.005 162 4 1 5.0246e-15 
-0.09125 1.31557e-12 1.31104e-09 0.0025 1 1 2.5 0.005 163 4 1 2.00515e-15 
-0.08875 9.8725e-14 2.96268e-10 0.0025 1 1 2.5 0.005 164 4 1 6.71463e-16 
-0.08625 -5.16378e-14 -5.86624e-11 0.0025 1 1 2.5 0.005 165 5 1 1.46017e-16 
-0.08375 3.8173e-14 -2.20552e-11 0.0025 1 1 2.5 0.005 166 4 1 -3.30402e-17 
-0.08125 4.26861e-14 2.38742e-12 0.0025 1 1 2.5 0.005 167 3 1 -1.45661e-17 
-0.07875 2.68157e-14 1.02887e-11 0.0025 1 1 2.5 0.005 168 4 1 3.19744e-18 
-0.07625 7.57949e-15 9.77707e-12 0.0025 1 1 2.5 0.005 169 4 1 5.00934e-30 
-0.07375 -1.82575e-15 7.95808e-13 0.0025 1 1 2.5 0.005 170 5 1 1.10134e-17 
-0.07125 1.47169e-15 -1.13687e-13 0.0025 1 1 2.5 0.005 171 5 1 -1.13687e-17 
-0.06875 2.87809e-16 -5.68434e-14 0.0025 1 1 2.5 0.005 172 5 1 1.03029e-17 
-0.06625 1.94619e-15 5.68434e-14 0.0025 1 1 2.5 0.005 173 5 1 -1.59872e-17 
-0.06375 1.07379e-15 -1.66252e-26 0.0025 1 1 2.5 0.005 174 4 1 -2.4869e-18 
-0.06125 -1.5196e-15 5.76855e-27 0.0025 1 1 2.5 0.005 175 3 1 3.16192e-17 
-0.05875 2.89799e-15 -1.13687e-13 0.0025 1 1 2.5 0.005 176 4 1 -2.4869e-17 
-0.05625 1.23723e-15 5.68434e-14 0.0025 1 1 2.5 0.005 177 5 1 1.42109e-18 
-0.05375 1.0992e-15 -7.88861e-29 0.0025 1 1 2.5 0.005 178 4 1 7.10543e-19 
-0.05125 -3.53788e-16 5.68434e-14 0.0025 1 1 2.5 0.005 179 5 1 -1.42109e-18 
-0.04875 1.76524e-15 -5.68434e-14 0.0025 1 1 2.5 0.005 180 5 1 -3.90799e-18 
-0.04625 -1.09384e-16 -1.13687e-13 0.0025 1 1 2.5 0.005 181 5 1 3.19744e-18 
-0.04375 -1.06155e-15 6.72623e-44 0.0025 1 1 2.5 0.005 182 5 1 -7.4607e-18 
-0.04125 -1.55684e-15 3.9443e-29 0.0025 1 1 2.5 0.005 183 5 1 3.55271e-18 
-0.03875 -4.87758e-16 -6.82121e-13 0.0025 1 1 2.5 0.005 184 5 1 -5.32907e-18 
-0.03625 -7.0104e-16 -2.46125e-26 0.0025 1 1 2.5 0.005 185 4 1 -1.20792e-17 
-0.03375 -3.15943e-15 9.09495e-13 0.0025 1 1 2.5 0.005 186 4 1 -4.61853e-18 
-0.03125 8.8029e-16 1.13687e-13 0.0025 1 1 2.5 0.005 187 3 1 4.76064e-17 
-0.02875 -4.49927e-16 -1.13687e-13 0.0025 1 1 2.5 0.005 188 4 1 -3.83693e-17 
-0.02625 -9.03321e-16 7.88861e-29 0.0025 1 1 2.5 0.005 189 5 1 8.88178e-18 
-0.02375 -1.29733e-15 -1.13687e-13 0.0025 1 1 2.5 0.005 190 3 1 -2.13163e-18 
-0.02125 1.06176e-15 -1.13687e-13 0.0025 1 1 2.5 0.005 191 4 1 6.39488e-18 
-0.01875 -2.95957e-15 -4.54747e-13 0.0025 1 1 2.5 0.005 192 5 1 -8.88178e-18 
-0.01625 -5.41817e-16 1.36424e-12 0.0025 1 1 2.5 0.005 193 3 1 3.19744e-18 
-0.01375 -9.04859e-16 -2.84217e-13 0.0025 1 1 2.5 0.005 194 5 1 2.13163e-18 
-0.01125 -1.56914e-15 -8.52651e-13 0.0025 1 1 2.5 0.005 195 3 1 -1.77636e-18 
-0.00875 -1.22944e-15 9.66338e-13 0.0025 1 1 2.5 0.005 196 4 1 -7.10543e-19 
-0.00625 -7.26321e-16 -6.25278e-13 0.0025 1 1 2.5 0.005 197 5 1 1.77636e-18 
-0.00375 4.09275e-17 -3.9443e-29 0.0025 1 1 2.5 0.005 198 3 1 -2.13163e-18 
-0.00125 -1.06182e-16 1.13687e-13 0.0025 1 1 2.5 0.005 199 5 1 5.00742e-33 
0.00125 -1.64886e-16 5.68434e-14 0.0025 1 1 2.5 0.005 200 4 1 -7.10543e-19 
0.00375 -2.10292e-16 -9.86076e-30 0.0025 1 1 2.5 0.005 201 4 1 1.2326e-33 
0.00625 -1.92788e-16 5.68434e-14 0.0025 1 1 2.5 0.005 202 4 1 -1.06581e-18 
0.00875 1.00011e-15 4.54747e-13 0.0025 1 1 2.5 0.005 203 4 1 3.55271e-19 
0.01125 8.17081e-16 -4.54747e-13 0.0025 1 1 2.5 0.005 204 4 1 2.13163e-18 
0.01375 1.47979e-15 3.41061e-13 0.0025 1 1 2.5 0.005 205 5 1 -4.61853e-18 
0.01625 1.18548e-15 4.54747e-13 0.0025 1 1 2.5 0.005 206 5 1 -7.10543e-19 
0.01875 2.09358e-15 -2.27374e-13 0.0025 1 1 2.5 0.005 207 4 1 1.06581e-18 
0.02125 2.58665e-15 2.84217e-13 0.0025 1 1 2.5 0.005 208 3 1 -1.77636e-18 
0.02375 2.89309e-15 -1.08002e-12 0.0025 1 1 2.5 0.005 209 4 1 1.1724e-17 
0.02625 4.02347e-16 1.64846e-12 0.0025 1 1 2.5 0.005 210 5 1 -1.98952e-17 
0.02875 1.87579e-15 -2.27374e-13 0.0025 1 1 2.5 0.005 211 4 1 1.35003e-17 
0.03125 1.78698e-15 -5.68434e-13 0.0025 1 1 2.5 0.005 212 3 1 7.10543e-18 
0.03375 4.6573e-15 5.68434e-14 0.0025 1 1 2.5 0.005 213 4 1 1.06581e-18 
0.03625 1.08585e-15 -5.68434e-14 0.0025 1 1 2.5 0.005 214 5 1 -1.88294e-17 
0.03875 3.00315e-15 0 0.0025 1 1 2.5 0.005 215 3 1 1.98952e-17 
0.04125 1.24023e-15 -5.68434e-14 0.0025 1 1 2.5 0.005 216 4 1 -9.9476e-18 
0.04375 2.44613e-15 -1.13687e-13 0.0025 1 1 2.5 0.005 217 4 1 -9.23706e-18 
0.04625 2.73672e-15 0 0.0025 1 1 2.5 0.005 218 3 1 1.49214e-17 
0.04875 2.64723e-15 -5.68434e-14 0.0025 1 1 2.5 0.005 219 4 1 -7.81597e-18 
0.05125 2.36681e-15 5.68434e-14 0.0025 1 1 2.5 0.005 220 4 1 -7.10543e-18 
0.05375 2.49967e-15 -1.81899e-12 0.0025 1 1 2.5 0.005 221 3 1 1.3145e-17 
0.05625 5.78905e-15 1.36424e-12 0.0025 1 1 2.5 0.005 222 4 1 1.38556e-17 
0.05875 3.02711e-15 1.08002e-12 0.0025 1 1 2.5 0.005 223 5 1 -8.56204e-17 
0.06125 -2.94362e-16 -1.93268e-12 0.0025 1 1 2.5 0.005 224 3 1 8.70415e-17 
0.06375 5.95501e-15 6.82121e-13 0.0025 1 1 2.5 0.005 225 4 1 -6.39488e-18 
0.06625 -3.21528e-16 4.54747e-13 0.0025 1 1 2.5 0.005 226 5 1 -2.94875e-17 
0.06875 4.07805e-15 -1.7053e-13 0.0025 1 1 2.5 0.005 227 5 1 1.88294e-17 
0.07125 1.13312e-15 6.25278e-13 0.0025 1 1 2.5 0.005 228 5 1 -1.91847e-17 
