# Time [s]: 0.240824
# Columns: pos [m], vel [m/s], acc [m/s^2], mass [kg], dens [kg/m^3], pres [Pa], ene [J/kg], sml [m], id, neighbor, alpha, gradh, ...additional?
1.34013 -0.673133 0.000782872 0.0025 0.511025 0.432696 2.15246 0.00978427 0 4 1 -0.000134225 
1.34491 -0.673139 0.000812032 0.0025 0.536879 0.426157 1.95 0.00931309 1 4 1 0.000179248 
1.34945 -0.673145 0.000859791 0.0025 0.548207 0.430825 1.96846 0.00912065 2 3 1 -1.90585e-05 
1.35403 -0.673151 0.000938267 0.0025 0.54594 0.429159 1.9646 0.00915852 3 5 1 3.48585e-06 
1.35861 -0.673158 0.00105028 0.0025 0.546336 0.429312 1.96453 0.00915187 4 4 1 -1.38966e-07 
1.36318 -0.673166 0.00119088 0.0025 0.546345 0.429279 1.9643 0.00915173 5 4 1 1.43347e-07 
1.36776 -0.673173 0.00134978 0.0025 0.546365 0.429275 1.96423 0.00915139 6 4 1 -3.94508e-09 
1.37233 -0.673181 0.00151613 0.0025 0.546375 0.429269 1.96417 0.00915122 7 4 1 7.7719e-09 
1.37691 -0.673189 0.0016835 0.0025 0.546386 0.429265 1.96411 0.00915104 8 4 1 4.28926e-09 
1.38149 -0.673198 0.00185416 0.0025 0.546395 0.42926 1.96406 0.00915089 9 4 1 4.98157e-09 
1.38606 -0.673207 0.00203982 0.0025 0.546402 0.429255 1.96401 0.00915077 10 4 1 -2.78042e-09 
1.39064 -0.673217 0.00225428 0.0025 0.546408 0.429249 1.96396 0.00915067 11 4 1 4.11405e-09 
1.39521 -0.673227 0.00249896 0.0025 0.546413 0.429243 1.96391 0.00915058 12 4 1 2.16723e-09 
1.39979 -0.673238 0.00275303 0.0025 0.546416 0.429237 1.96387 0.00915053 13 4 1 2.86792e-09 
1.40436 -0.67325 0.00298493 0.0025 0.546418 0.429229 1.96383 0.0091505 14 4 1 1.45708e-09 
1.40894 -0.673262 0.00318507 0.0025 0.546418 0.429221 1.96379 0.0091505 15 3 1 -2.19819e-09 
1.41351 -0.673277 0.00339101 0.0025 0.546418 0.429212 1.96375 0.0091505 16 4 1 4.23947e-09 
1.41809 -0.673292 0.00366924 0.0025 0.546416 0.429203 1.96372 0.00915053 17 4 1 6.34527e-10 
1.42266 -0.673309 0.00405542 0.0025 0.546413 0.429193 1.96368 0.00915059 18 4 1 -2.28497e-09 
1.42724 -0.673328 0.00450928 0.0025 0.546409 0.429182 1.96365 0.00915066 19 4 1 1.45609e-09 
1.43181 -0.673347 0.00494508 0.0025 0.546403 0.42917 1.96361 0.00915075 20 4 1 -6.43924e-11 
1.43639 -0.673369 0.00532539 0.0025 0.546396 0.429156 1.96358 0.00915088 21 4 1 1.0751e-11 
1.44096 -0.673394 0.00572351 0.0025 0.546387 0.429141 1.96354 0.00915102 22 4 1 -2.4668e-10 
1.44554 -0.673421 0.006272 0.0025 0.546377 0.429125 1.96351 0.0091512 23 4 1 -1.86724e-09 
1.45012 -0.673452 0.00703269 0.0025 0.546365 0.429108 1.96347 0.0091514 24 4 1 -7.16089e-10 
1.45469 -0.673485 0.00792755 0.0025 0.546351 0.429088 1.96343 0.00915163 25 4 1 -1.79567e-09 
1.45927 -0.673521 0.0088245 0.0025 0.546334 0.429066 1.96339 0.00915191 26 4 1 -2.99799e-09 
1.46384 -0.673562 0.00969716 0.0025 0.546315 0.429042 1.96334 0.00915223 27 4 1 -1.51136e-09 
1.46842 -0.673607 0.0106739 0.0025 0.546293 0.429014 1.9633 0.00915259 28 4 1 -2.25055e-09 
1.473 -0.673659 0.0119174 0.0025 0.546269 0.428984 1.96325 0.00915301 29 4 1 -4.60596e-09 
1.47757 -0.673717 0.0134856 0.0025 0.546241 0.42895 1.96319 0.00915347 30 4 1 -4.19513e-09 
1.48215 -0.673782 0.0153235 0.0025 0.546209 0.428912 1.96313 0.00915401 31 4 1 -3.50904e-09 
1.48673 -0.673855 0.0173553 0.0025 0.546171 0.428869 1.96307 0.00915464 32 4 1 -6.95938e-09 
1.4913 -0.673937 0.0195552 0.0025 0.546129 0.428819 1.963 0.00915535 33 4 1 -7.48446e-09 
1.49588 -0.674029 0.0219447 0.0025 0.546081 0.428764 1.96292 0.00915615 34 4 1 -5.10759e-09 
-0.499539 -0.674134 0.024577 0.0025 0.546026 0.428702 1.96283 0.00915707 35 4 1 -8.08504e-09 
-0.494961 -0.674254 0.027572 0.0025 0.545965 0.428632 1.96273 0.0091581 36 4 1 -9.58089e-09 
-0.490381 -0.674389 0.0310947 0.0025 0.545896 0.428554 1.96262 0.00915926 37 4 1 -8.19571e-09 
-0.485801 -0.674538 0.0351581 0.0025 0.545818 0.428467 1.9625 0.00916055 38 4 1 -9.92346e-09 
-0.481221 -0.674701 0.0392728 0.0025 0.545732 0.428371 1.96237 0.009162 39 4 1 -9.30166e-09 
-0.476639 -0.674876 0.0422846 0.0025 0.545639 0.428267 1.96223 0.00916357 40 4 1 -3.45763e-09 
-0.472057 -0.675065 0.0433393 0.0025 0.545541 0.428158 1.96208 0.00916521 41 4 1 2.51441e-09 
-0.467474 -0.675262 0.0430698 0.0025 0.545445 0.428051 1.96193 0.00916683 42 4 1 6.87327e-09 
-0.46289 -0.675456 0.0424639 0.0025 0.545354 0.42795 1.9618 0.00916836 43 4 1 1.30249e-08 
-0.458306 -0.675624 0.0387804 0.0025 0.545274 0.427861 1.96167 0.00916971 44 4 1 2.54405e-08 
-0.453721 -0.67575 0.0259003 0.0025 0.545213 0.427793 1.96158 0.00917073 45 4 1 2.76552e-08 
-0.449135 -0.675849 0.0306587 0.0025 0.545177 0.427754 1.96152 0.00917134 46 5 1 8.87671e-08 
-0.444549 -0.675819 -0.0427043 0.0025 0.545214 0.427795 1.96157 0.00917071 47 4 1 1.31762e-07 
-0.439964 -0.675542 -0.0660086 0.0025 0.545359 0.427955 1.96177 0.00916828 48 4 1 1.71204e-07 
-0.435381 -0.675155 -0.119354 0.0025 0.545648 0.428287 1.96218 0.00916342 49 4 1 5.94228e-07 
-0.430801 -0.673946 -0.467914 0.0025 0.546405 0.429137 1.96326 0.00915072 50 4 1 1.18124e-06 
-0.42623 -0.670825 -0.9412 0.0025 0.548018 0.430911 1.96557 0.00912379 51 4 1 1.34015e-06 
-0.421677 -0.666002 -1.26104 0.0025 0.550485 0.433619 1.96911 0.00908291 52 4 1 1.26034e-06 
-0.417147 -0.660081 -1.48785 0.0025 0.553609 0.43707 1.97356 0.00903165 53 4 1 1.53979e-06 
-0.412645 -0.652945 -1.85321 0.0025 0.557428 0.441306 1.97899 0.00896977 54 4 1 2.1014e-06 
-0.408177 -0.644153 -2.2953 0.0025 0.562123 0.446523 1.98564 0.00889485 55 4 1 2.61369e-06 
-0.40375 -0.63356 -2.75645 0.0025 0.567769 0.452811 1.99359 0.00880641 56 4 1 2.93274e-06 
-0.399371 -0.621363 -3.13703 0.0025 0.574284 0.460092 2.00271 0.0087065 57 4 1 2.94679e-06 
-0.395044 -0.608082 -3.37127 0.0025 0.581432 0.468116 2.01265 0.00859945 58 4 1 2.71351e-06 
-0.390771 -0.594393 -3.45401 0.0025 0.588913 0.476558 2.02297 0.00849021 59 4 1 2.47114e-06 
-0.386553 -0.58066 -3.49112 0.0025 0.59651 0.485178 2.03336 0.00838209 60 4 1 2.22987e-06 
-0.382389 -0.567135 -3.45167 0.0025 0.60408 0.493813 2.04364 0.00827706 61 4 1 1.96439e-06 
-0.378276 -0.55404 -3.37583 0.0025 0.611507 0.50233 2.05365 0.00817652 62 4 1 1.79403e-06 
-0.374212 -0.541384 -3.31196 0.0025 0.618757 0.510685 2.06335 0.00808072 63 4 1 1.64379e-06 
-0.370195 -0.529166 -3.22571 0.0025 0.625818 0.518862 2.07273 0.00798954 64 4 1 1.52616e-06 
-0.366222 -0.517427 -3.15812 0.0025 0.632694 0.526861 2.08181 0.00790271 65 4 1 1.49392e-06 
-0.362292 -0.506036 -3.11946 0.0025 0.639435 0.534738 2.09065 0.00781941 66 4 1 1.52546e-06 
-0.358402 -0.494869 -3.12103 0.0025 0.646112 0.542575 2.09935 0.0077386 67 4 1 1.61041e-06 
-0.354553 -0.483709 -3.16428 0.0025 0.652811 0.550472 2.10802 0.00765918 68 4 1 1.77367e-06 
-0.350743 -0.472425 -3.2808 0.0025 0.659641 0.558554 2.11681 0.00757988 69 4 1 1.90107e-06 
-0.346973 -0.460886 -3.38584 0.0025 0.666662 0.566894 2.12579 0.00750005 70 4 1 1.98166e-06 
-0.343243 -0.449124 -3.51081 0.0025 0.673886 0.575514 2.13498 0.00741965 71 4 1 2.05388e-06 
-0.339553 -0.437073 -3.62831 0.0025 0.681319 0.584416 2.14436 0.00733871 72 4 1 2.02197e-06 
-0.335904 -0.424917 -3.68832 0.0025 0.688901 0.593538 2.15388 0.00725793 73 4 1 1.95969e-06 
-0.332295 -0.412732 -3.73517 0.0025 0.696571 0.602809 2.16343 0.00717802 74 4 1 1.9578e-06 
-0.328725 -0.400517 -3.79968 0.0025 0.704318 0.612213 2.17302 0.00709907 75 4 1 1.89886e-06 
-0.325195 -0.388368 -3.80926 0.0025 0.712106 0.621709 2.1826 0.00702142 76 4 1 1.81948e-06 
-0.321704 -0.37631 -3.82299 0.0025 0.719893 0.631245 2.19211 0.00694548 77 4 1 1.79176e-06 
-0.31825 -0.364395 -3.84144 0.0025 0.727677 0.64082 2.20156 0.00687118 78 4 1 1.72749e-06 
-0.314832 -0.352595 -3.83051 0.0025 0.735441 0.650411 2.21093 0.00679865 79 4 1 1.70021e-06 
-0.311451 -0.340927 -3.85581 0.0025 0.743187 0.660022 2.22021 0.00672778 80 4 1 1.68599e-06 
-0.308104 -0.329351 -3.86614 0.0025 0.750931 0.669668 2.22943 0.00665841 81 4 1 1.61426e-06 
-0.304792 -0.317906 -3.85409 0.0025 0.758645 0.679318 2.23856 0.0065907 82 4 1 1.58891e-06 
-0.301514 -0.306621 -3.87211 0.0025 0.766334 0.688976 2.24761 0.00652457 83 4 1 1.54687e-06 
-0.298268 -0.295425 -3.8569 0.0025 0.773998 0.698641 2.25657 0.00645996 84 4 1 1.53054e-06 
-0.295053 -0.284402 -3.88603 0.0025 0.781645 0.708323 2.26546 0.00639677 85 4 1 1.51084e-06 
-0.291871 -0.273405 -3.88389 0.0025 0.789284 0.718032 2.27429 0.00633486 86 4 1 1.468e-06 
-0.288718 -0.262572 -3.89503 0.0025 0.796902 0.727753 2.28304 0.00627429 87 4 1 1.42999e-06 
-0.285596 -0.251816 -3.88633 0.0025 0.804496 0.737479 2.29172 0.00621507 88 4 1 1.39825e-06 
-0.282503 -0.241224 -3.89507 0.0025 0.812062 0.747207 2.30031 0.00615716 89 4 1 1.37198e-06 
-0.279439 -0.230691 -3.88978 0.0025 0.819605 0.75694 2.30883 0.0061005 90 4 1 1.33984e-06 
-0.276403 -0.220343 -3.89314 0.0025 0.827122 0.766679 2.31728 0.00604506 91 4 1 1.37908e-06 
-0.273394 -0.209971 -3.95155 0.0025 0.834657 0.776471 2.3257 0.00599049 92 4 1 1.27137e-06 
-0.270412 -0.199768 -3.87075 0.0025 0.842153 0.786252 2.33403 0.00593716 93 4 1 1.28571e-06 
-0.267456 -0.189685 -3.96032 0.0025 0.849628 0.79604 2.34229 0.00588493 94 4 1 1.25862e-06 
-0.264527 -0.179591 -3.89394 0.0025 0.857092 0.805842 2.3505 0.00583368 95 4 1 1.13271e-06 
-0.261623 -0.169834 -3.86441 0.0025 0.864468 0.815574 2.35857 0.00578391 96 4 1 1.28168e-06 
-0.258743 -0.15998 -3.99057 0.0025 0.871882 0.825381 2.36664 0.00573472 97 4 1 1.18492e-06 
-0.255888 -0.150168 -3.88427 0.0025 0.87929 0.835211 2.37466 0.00568641 98 4 1 1.0937e-06 
-0.253056 -0.140704 -3.91134 0.0025 0.886625 0.84499 2.38257 0.00563936 99 4 1 1.27837e-06 
-0.250248 -0.130999 -4.05028 0.0025 0.894039 0.854892 2.39052 0.00559259 100 4 1 1.02272e-06 
-0.247464 -0.121494 -3.81634 0.0025 0.901366 0.86471 2.39834 0.00554713 101 4 1 9.09978e-07 
-0.244701 -0.112456 -3.83678 0.0025 0.908531 0.874363 2.40594 0.00550339 102 4 1 1.28118e-06 
-0.24196 -0.103087 -4.08937 0.0025 0.915839 0.884219 2.41367 0.00545947 103 4 1 1.02402e-06 
-0.239241 -0.0937366 -3.82821 0.0025 0.923121 0.894063 2.42132 0.00541641 104 4 1 7.53222e-07 
-0.236544 -0.0850684 -3.74527 0.0025 0.930171 0.903656 2.42869 0.00537535 105 4 1 1.27568e-06 
-0.233866 -0.0760244 -4.16227 0.0025 0.937407 0.913515 2.43624 0.00533386 106 4 1 1.19012e-06 
-0.23121 -0.066608 -4.01992 0.0025 0.944779 0.923563 2.4439 0.00529224 107 4 1 5.07603e-07 
-0.228574 -0.058139 -3.58527 0.0025 0.951744 0.933112 2.45108 0.00525351 108 4 1 6.31744e-07 
-0.225956 -0.0500203 -3.65837 0.0025 0.958447 0.942342 2.45796 0.00521677 109 4 1 1.06394e-06 
-0.223357 -0.0417328 -3.8666 0.0025 0.965317 0.951824 2.46498 0.00517965 110 4 1 1.43111e-06 
-0.220776 -0.0327624 -4.36615 0.0025 0.972588 0.961865 2.47242 0.00514093 111 4 1 8.28743e-07 
-0.218216 -0.0236637 -3.81023 0.0025 0.979737 0.971716 2.4797 0.00510341 112 4 1 -7.79371e-07 
-0.215673 -0.0169873 -2.30568 0.0025 0.985573 0.979854 2.48553 0.00507319 113 4 1 5.13483e-07 
-0.213143 -0.0111872 -3.55568 0.0025 0.991261 0.987903 2.49122 0.00504408 114 4 1 3.49972e-06 
-0.210629 -0.000961659 -5.98045 0.0025 0.999132 0.998839 2.49923 0.00500434 115 4 1 5.35678e-07 
-0.208138 0.00950488 -3.40294 0.0025 1.0067 1.00924 2.50686 0.00496671 116 4 1 -4.1819e-06 
-0.205662 0.0123618 0.599615 0.0025 1.00995 1.01389 2.50992 0.00495072 117 4 1 -5.79453e-07 
-0.203187 0.0127158 -2.01416 0.0025 1.0122 1.01731 2.51209 0.00493971 118 4 1 4.84126e-06 
-0.200722 0.0218662 -5.96629 0.0025 1.01844 1.02597 2.51845 0.00490945 119 4 1 4.40788e-08 
-0.198278 0.0304642 -2.06399 0.0025 1.02454 1.03434 2.52452 0.00488025 120 4 1 -4.30854e-06 
-0.195842 0.031297 0.441012 0.0025 1.02592 1.03637 2.5258 0.00487368 121 3 1 -2.13842e-06 
-0.193404 0.0295466 1.08375 0.0025 1.02454 1.03451 2.52441 0.00488022 122 4 1 -5.4632e-07 
-0.190962 0.0270375 1.29153 0.0025 1.02241 1.03152 2.5223 0.00489039 123 4 1 -1.11498e-07 
-0.188514 0.0242686 1.36984 0.0025 1.02004 1.02817 2.51995 0.00490178 124 4 1 3.21545e-08 
-0.18606 0.0213958 1.4021 0.0025 1.01758 1.02471 2.51751 0.00491361 125 4 1 9.94955e-08 
-0.1836 0.0184941 1.40385 0.0025 1.01512 1.02124 2.51507 0.00492554 126 4 1 1.51278e-07 
-0.181135 0.0156298 1.37381 0.0025 1.01271 1.01784 2.51267 0.00493727 127 4 1 2.02313e-07 
-0.178663 0.0128788 1.30579 0.0025 1.01041 1.01462 2.51039 0.00494848 128 4 1 2.48863e-07 
-0.176186 0.0103228 1.1986 0.0025 1.0083 1.01166 2.50829 0.00495883 129 4 1 2.82469e-07 
-0.173704 0.00803546 1.05829 0.0025 1.00643 1.00903 2.50642 0.00496804 130 4 1 2.96547e-07 
-0.171218 0.00606884 0.897109 0.0025 1.00484 1.00679 2.50483 0.00497592 131 4 1 2.89559e-07 
-0.168728 0.00444556 0.729953 0.0025 1.00353 1.00496 2.50352 0.0049824 132 4 1 2.64819e-07 
-0.166236 0.00315857 0.570605 0.0025 1.0025 1.00352 2.5025 0.00498752 133 4 1 2.28474e-07 
-0.163741 0.00217723 0.429154 0.0025 1.00172 1.00242 2.50172 0.00499141 134 4 1 1.87166e-07 
-0.161244 0.00145642 0.311067 0.0025 1.00115 1.00162 2.50114 0.00499426 135 4 1 1.46384e-07 
-0.158746 0.000945599 0.217635 0.0025 1.00074 1.00105 2.50074 0.00499628 136 4 1 1.09778e-07 
-0.156248 0.000595847 0.147155 0.0025 1.00047 1.00066 2.50047 0.00499766 137 4 1 7.91924e-08 
-0.153749 0.000364258 0.096236 0.0025 1.00029 1.0004 2.50028 0.00499857 138 4 1 5.50751e-08 
-0.151249 0.000215881 0.0608906 0.0025 1.00017 1.00024 2.50017 0.00499915 139 4 1 3.69759e-08 
-0.14875 0.000123897 0.037267 0.0025 1.0001 1.00014 2.5001 0.00499951 140 4 1 2.39798e-08 
-0.14625 6.87451e-05 0.0220466 0.0025 1.00005 1.00008 2.50005 0.00499973 141 4 1 1.50222e-08 
-0.14375 3.67972e-05 0.0125903 0.0025 1.00003 1.00004 2.50003 0.00499986 142 4 1 9.08509e-09 
-0.14125 1.89458e-05 0.00692736 0.0025 1.00001 1.00002 2.50001 0.00499993 143 4 1 5.29831e-09 
-0.13875 9.34638e-06 0.00366229 0.0025 1.00001 1.00001 2.50001 0.00499996 144 4 1 2.97434e-09 
-0.13625 4.39435e-06 0.00185336 0.0025 1 1 2.5 0.00499998 145 4 1 1.60322e-09 
-0.13375 1.95443e-06 0.000893137 0.0025 1 1 2.5 0.00499999 146 4 1 8.26852e-10 
-0.13125 8.13272e-07 0.000406783 0.0025 1 1 2.5 0.005 147 4 1 4.06036e-10 
-0.12875 3.11191e-07 0.00017313 0.0025 1 1 2.5 0.005 148 4 1 1.88511e-10 
-0.12625 1.06265e-07 6.76026e-05 0.0025 1 1 2.5 0.005 149 4 1 8.1871e-11 
-0.12375 3.0495e-08 2.34064e-05 0.0025 1 1 2.5 0.005 150 4 1 3.26945e-11 
-0.12125 6.24706e-09 6.66281e-06 0.0025 1 1 2.5 0.005 151 4 1 1.16299e-11 
-0.11875 2.58868e-10 1.31707e-06 0.0025 1 1 2.5 0.005 152 4 1 3.56973e-12 
-0.11625 -1.25428e-10 -4.96026e-07 0.0025 1 1 2.5 0.005 153 5 1 6.16139e-13 
-0.11375 4.06132e-10 -1.14795e-07 0.0025 1 1 2.5 0.005 154 4 1 -2.38972e-13 
-0.11125 3.94835e-10 4.92618e-08 0.0025 1 1 2.5 0.005 155 3 1 -8.03148e-14 
-0.10875 2.58182e-10 7.29724e-08 0.0025 1 1 2.5 0.005 156 4 1 1.11903e-14 
-0.10625 1.37584e-10 5.2662e-08 0.0025 1 1 2.5 0.005 157 4 1 2.86985e-14 
-0.10375 6.27471e-11 2.95989e-08 0.0025 1 1 2.5 0.005 158 4 1 2.27878e-14 
-0.10125 2.45294e-11 1.39926e-08 0.0025 1 1 2.5 0.005 159 4 1 1.34111e-14 
-0.09875 7.94741e-12 5.58788e-09 0.0025 1 1 2.5 0.005 160 4 1 6.55263e-15 
-0.09625 1.9061e-12 1.81291e-09 0.0025 1 1 2.5 0.005 161 4 1 2.67235e-15 
-0.09375 2.00629e-13 4.16435e-10 0.0025 1 1 2.5 0.005 162 4 1 9.05231e-16 
-0.09125 -6.6457e-14 -2.4329e-11 0.0025 1 1 2.5 0.005 163 5 1 2.24887e-16 
-0.08875 3.09955e-14 -4.83169e-11 0.0025 1 1 2.5 0.005 164 4 1 -2.45137e-17 
-0.08625 5.40524e-14 5.85487e-12 0.0025 1 1 2.5 0.005 165 3 1 -2.52243e-17 
-0.08375 3.38349e-14 1.14255e-11 0.0025 1 1 2.5 0.005 166 4 1 -7.10543e-19 
-0.08125 1.37774e-14 1.22782e-11 0.0025 1 1 2.5 0.005 167 4 1 4.26326e-18 
-0.07875 -1.88542e-15 2.21689e-12 0.0025 1 1 2.5 0.005 168 5 1 9.59233e-18 
-0.07625 -6.51867e-16 -2.27374e-13 0.0025 1 1 2.5 0.005 169 5 1 -6.39488e-18 
-0.07375 -1.40735e-15 -2.27374e-13 0.0025 1 1 2.5 0.005 170 5 1 5.68434e-18 
-0.07125 1.61119e-15 1.13687e-13 0.0025 1 1 2.5 0.005 171 5 1 -1.24345e-17 
-0.06875 2.87824e-16 5.68434e-14 0.0025 1 1 2.5 0.005 172 5 1 1.10134e-17 
-0.06625 1.87644e-15 -5.68434e-14 0.0025 1 1 2.5 0.005 173 5 1 -1.59872e-17 
-0.06375 9.866e-16 5.68434e-14 0.0025 1 1 2.5 0.005 174 4 1 -2.13163e-18 
-0.06125 -1.53704e-15 5.68434e-14 0.0025 1 1 2.5 0.005 175 3 1 3.09086e-17 
-0.05875 2.8457e-15 5.68434e-14 0.0025 1 1 2.5 0.005 176 4 1 -2.45137e-17 
-0.05625 1.11518e-15 -1.13687e-13 0.0025 1 1 2.5 0.005 177 5 1 1.42109e-18 
-0.05375 1.01201e-15 1.7053e-13 0.0025 1 1 2.5 0.005 178 4 1 7.10543e-19 
-0.05125 -4.06102e-16 1.38051e-27 0.0025 1 1 2.5 0.005 179 5 1 -1.42109e-18 
-0.04875 2.18372e-15 -1.7053e-13 0.0025 1 1 2.5 0.005 180 5 1 -3.90799e-18 
-0.04625 1.17293e-16 -5.68434e-14 0.0025 1 1 2.5 0.005 181 5 1 3.55271e-18 
-0.04375 -9.39492e-16 -5.68434e-14 0.0025 1 1 2.5 0.005 182 5 1 -8.17124e-18 
-0.04125 -1.60916e-15 5.68434e-14 0.0025 1 1 2.5 0.005 183 5 1 3.90799e-18 
-0.03875 7.15421e-16 -1.7053e-13 0.0025 1 1 2.5 0.005 184 5 1 -9.23706e-18 
-0.03625 -3.87198e-16 -1.13687e-13 0.0025 1 1 2.5 0.005 185 4 1 -4.26326e-18 
-0.03375 -4.48471e-15 -1.13687e-13 0.0025 1 1 2.5 0.005 186 4 1 -4.9738e-18 
-0.03125 -5.49453e-16 6.82121e-13 0.0025 1 1 2.5 0.005 187 3 1 4.05009e-17 
-0.02875 -5.02209e-16 1.7053e-13 0.0025 1 1 2.5 0.005 188 4 1 -3.48166e-17 
-0.02625 -7.28964e-16 -1.13687e-13 0.0025 1 1 2.5 0.005 189 5 1 9.23706e-18 
-0.02375 -9.486e-16 -1.13687e-13 0.0025 1 1 2.5 0.005 190 3 1 -2.84217e-18 
-0.02125 5.73593e-16 2.27374e-13 0.0025 1 1 2.5 0.005 191 4 1 5.68434e-18 
-0.01875 -2.00054e-15 2.84217e-13 0.0025 1 1 2.5 0.005 192 5 1 -7.10543e-18 
-0.01625 -2.09383e-15 -6.25278e-13 0.0025 1 1 2.5 0.005 193 4 1 2.13163e-18 
-0.01375 -1.23609e-15 6.82121e-13 0.0025 1 1 2.5 0.005 194 3 1 1.77636e-18 
-0.01125 -7.49575e-16 -5.68434e-13 0.0025 1 1 2.5 0.005 195 5 1 -2.84217e-18 
-0.00875 -1.1249e-15 5.68434e-14 0.0025 1 1 2.5 0.005 196 4 1 1.2326e-33 
-0.00625 -3.60094e-16 -1.13687e-13 0.0025 1 1 2.5 0.005 197 4 1 1.2326e-33 
-0.00375 -2.87903e-17 3.41061e-13 0.0025 1 1 2.5 0.005 198 3 1 -7.10543e-19 
-0.00125 -2.45696e-16 -1.13687e-13 0.0025 1 1 2.5 0.005 199 3 1 3.55271e-19 
0.00125 -2.17214e-16 -2.27374e-13 0.0025 1 1 2.5 0.005 200 3 1 -1.42109e-18 
0.00375 -4.1951e-16 4.54747e-13 0.0025 1 1 2.5 0.005 201 4 1 1.2326e-33 
0.00625 -6.28722e-16 -3.41061e-13 0.0025 1 1 2.5 0.005 202 3 1 0 
0.00875 4.42088e-16 3.41061e-13 0.0025 1 1 2.5 0.005 203 3 1 0 
0.01125 9.21818e-16 2.46519e-28 0.0025 1 1 2.5 0.005 204 4 1 2.4869e-18 
0.01375 1.49716e-15 5.11591e-13 0.0025 1 1 2.5 0.005 205 5 1 -4.26326e-18 
0.01625 8.71549e-16 -9.09495e-13 0.0025 1 1 2.5 0.005 206 4 1 -1.06581e-18 
0.01875 2.09356e-15 6.82121e-13 0.0025 1 1 2.5 0.005 207 4 1 -1.06581e-18 
0.02125 1.55806e-15 4.54747e-13 0.0025 1 1 2.5 0.005 208 3 1 -1.77636e-18 
0.02375 2.38747e-15 1.26218e-27 0.0025 1 1 2.5 0.005 209 4 1 1.38556e-17 
0.02625 -7.83489e-16 5.68434e-14 0.0025 1 1 2.5 0.005 210 5 1 -1.84741e-17 
0.02875 2.03273e-15 -5.68434e-14 0.0025 1 1 2.5 0.005 211 4 1 9.9476e-18 
0.03125 3.37373e-15 -2.84217e-13 0.0025 1 1 2.5 0.005 212 3 1 9.23706e-18 
0.03375 4.51781e-15 5.68434e-14 0.0025 1 1 2.5 0.005 213 4 1 3.55271e-19 
0.03625 1.22534e-15 -5.68434e-14 0.0025 1 1 2.5 0.005 214 5 1 -1.84741e-17 
0.03875 3.05546e-15 -5.68434e-14 0.0025 1 1 2.5 0.005 215 3 1 1.98952e-17 
0.04125 1.41459e-15 -5.68434e-14 0.0025 1 1 2.5 0.005 216 4 1 -9.9476e-18 
0.04375 2.79486e-15 -1.13687e-13 0.0025 1 1 2.5 0.005 217 4 1 -9.23706e-18 
0.04625 2.73673e-15 2.27374e-13 0.0025 1 1 2.5 0.005 218 4 1 1.42109e-17 
0.04875 2.5948e-15 -1.93268e-12 0.0025 1 1 2.5 0.005 219 5 1 -8.52651e-18 
0.05125 5.57515e-15 8.52651e-13 0.0025 1 1 2.5 0.005 220 5 1 -8.88178e-18 
0.05375 3.38912e-15 5.11591e-13 0.0025 1 1 2.5 0.005 221 4 1 9.23706e-18 
0.05625 2.24946e-15 7.38964e-13 0.0025 1 1 2.5 0.005 222 5 1 1.7053e-17 
0.05875 5.85757e-16 -1.08002e-12 0.0025 1 1 2.5 0.005 223 4 1 -8.3844e-17 
0.06125 4.902e-15 1.13687e-12 0.0025 1 1 2.5 0.005 224 3 1 8.02913e-17 
0.06375 3.70559e-15 -3.97904e-13 0.0025 1 1 2.5 0.005 225 4 1 1.06581e-18 
0.06625 -3.56479e-16 -4.54747e-13 0.0025 1 1 2.5 0.005 226 5 1 -3.2685e-17 
0.06875 4.46167e-15 -5.68434e-14 0.0025 1 1 2.5 0.005 227 5 1 1.88294e-17 
0.07125 1.91486e-16 5.68434e-14 0.0025 1 1 2.5 0.005 228 5 1 -1.56319e-17 
