# Time [s]: 0.240211
# Columns: pos [m], vel [m/s], acc [m/s^2], mass [kg], dens [kg/m^3], pres [Pa], ene [J/kg], sml [m], id, neighbor, alpha, gradh, ...additional?
1.34054 -0.673133 0.000799872 0.0025 0.511024 0.432695 2.15246 0.00978427 0 4 1 -0.000134225 
1.34532 -0.673139 0.000828088 0.0025 0.536879 0.426157 1.95 0.00931309 1 4 1 0.000179247 
1.34986 -0.673145 0.000873571 0.0025 0.548206 0.430825 1.96846 0.00912066 2 3 1 -1.90585e-05 
1.35444 -0.673152 0.000949041 0.0025 0.545939 0.429158 1.9646 0.00915852 3 5 1 3.48586e-06 
1.35902 -0.673159 0.00105855 0.0025 0.546336 0.429311 1.96453 0.00915188 4 4 1 -1.3896e-07 
1.3636 -0.673166 0.0011982 0.0025 0.546344 0.429279 1.9643 0.00915174 5 4 1 1.43349e-07 
1.36817 -0.673174 0.00135809 0.0025 0.546364 0.429275 1.96423 0.0091514 6 4 1 -3.94793e-09 
1.37275 -0.673182 0.001527 0.0025 0.546375 0.429269 1.96417 0.00915123 7 4 1 7.76528e-09 
1.37732 -0.67319 0.00169745 0.0025 0.546386 0.429264 1.96411 0.00915105 8 4 1 4.28157e-09 
1.3819 -0.673199 0.00187025 0.0025 0.546394 0.429259 1.96405 0.0091509 9 4 1 4.97601e-09 
1.38647 -0.673208 0.00205619 0.0025 0.546401 0.429254 1.96401 0.00915078 10 4 1 -2.7825e-09 
1.39105 -0.673218 0.00227013 0.0025 0.546408 0.429249 1.96396 0.00915068 11 4 1 4.11234e-09 
1.39562 -0.673229 0.00251668 0.0025 0.546413 0.429243 1.96391 0.0091506 12 4 1 2.15887e-09 
1.4002 -0.67324 0.00277798 0.0025 0.546416 0.429236 1.96387 0.00915054 13 4 1 2.84787e-09 
1.40477 -0.673252 0.00302128 0.0025 0.546417 0.429228 1.96383 0.00915052 14 4 1 1.42965e-09 
1.40935 -0.673264 0.00323068 0.0025 0.546417 0.42922 1.96379 0.00915051 15 3 1 -2.21926e-09 
1.41393 -0.673279 0.00343726 0.0025 0.546417 0.429211 1.96375 0.00915052 16 4 1 4.2363e-09 
1.4185 -0.673294 0.00370865 0.0025 0.546415 0.429202 1.96372 0.00915055 17 4 1 6.44011e-10 
1.42308 -0.673312 0.004091 0.0025 0.546412 0.429192 1.96368 0.00915061 18 4 1 -2.28535e-09 
1.42765 -0.67333 0.00455483 0.0025 0.546407 0.42918 1.96365 0.00915068 19 4 1 1.42628e-09 
1.43223 -0.673351 0.00501292 0.0025 0.546402 0.429168 1.96361 0.00915078 20 4 1 -1.17016e-10 
1.4368 -0.673373 0.00541262 0.0025 0.546394 0.429154 1.96357 0.0091509 21 4 1 -3.33279e-11 
1.44138 -0.673397 0.00581306 0.0025 0.546385 0.429139 1.96354 0.00915106 22 4 1 -2.57381e-10 
1.44595 -0.673425 0.00635072 0.0025 0.546375 0.429123 1.9635 0.00915123 23 4 1 -1.85708e-09 
1.45053 -0.673456 0.00710864 0.0025 0.546362 0.429105 1.96346 0.00915143 24 4 1 -7.27934e-10 
1.4551 -0.67349 0.00802554 0.0025 0.546348 0.429085 1.96343 0.00915168 25 4 1 -1.85858e-09 
1.45968 -0.673526 0.00896171 0.0025 0.546331 0.429063 1.96338 0.00915196 26 4 1 -3.09338e-09 
1.46426 -0.673568 0.00986618 0.0025 0.546312 0.429038 1.96334 0.00915228 27 4 1 -1.59227e-09 
1.46883 -0.673614 0.0108538 0.0025 0.54629 0.42901 1.96329 0.00915265 28 4 1 -2.29401e-09 
1.47341 -0.673667 0.0120991 0.0025 0.546265 0.42898 1.96324 0.00915307 29 4 1 -4.63554e-09 
1.47799 -0.673726 0.0136809 0.0025 0.546236 0.428945 1.96319 0.00915355 30 4 1 -4.25151e-09 
1.48256 -0.673792 0.0155533 0.0025 0.546203 0.428906 1.96313 0.0091541 31 4 1 -3.61133e-09 
1.48714 -0.673866 0.0176354 0.0025 0.546166 0.428862 1.96306 0.00915473 32 4 1 -7.0981e-09 
1.49172 -0.673949 0.0198924 0.0025 0.546122 0.428812 1.96299 0.00915546 33 4 1 -7.63946e-09 
1.4963 -0.674043 0.0223403 0.0025 0.546073 0.428756 1.96291 0.00915628 34 4 1 -5.25618e-09 
-0.499126 -0.67415 0.0250213 0.0025 0.546018 0.428693 1.96282 0.00915721 35 4 1 -8.18955e-09 
-0.494547 -0.674271 0.0280357 0.0025 0.545955 0.428622 1.96272 0.00915826 36 4 1 -9.5943e-09 
-0.489968 -0.674408 0.0315408 0.0025 0.545885 0.428543 1.96261 0.00915943 37 4 1 -8.10434e-09 
-0.485388 -0.67456 0.035579 0.0025 0.545807 0.428455 1.96249 0.00916075 38 4 1 -9.7964e-09 
-0.480807 -0.674725 0.0397352 0.0025 0.54572 0.428357 1.96235 0.00916221 39 4 1 -9.24426e-09 
-0.476226 -0.674902 0.0428481 0.0025 0.545626 0.428252 1.96221 0.00916379 40 4 1 -3.32188e-09 
-0.471643 -0.675091 0.0438092 0.0025 0.545527 0.428143 1.96206 0.00916545 41 4 1 3.22627e-09 
-0.46706 -0.675289 0.0430288 0.0025 0.54543 0.428035 1.96191 0.00916707 42 4 1 8.45163e-09 
-0.462476 -0.675482 0.0417446 0.0025 0.545341 0.427935 1.96178 0.00916858 43 4 1 1.48676e-08 
-0.457892 -0.675648 0.037931 0.0025 0.545263 0.427849 1.96166 0.00916988 44 4 1 2.50079e-08 
-0.453306 -0.675765 0.0247965 0.0025 0.545205 0.427784 1.96157 0.00917086 45 4 1 3.24743e-08 
-0.448721 -0.675867 0.0256508 0.0025 0.545175 0.427752 1.96152 0.00917137 46 5 1 9.83441e-08 
-0.444135 -0.67579 -0.0502099 0.0025 0.545226 0.427809 1.96159 0.00917051 47 4 1 1.29438e-07 
-0.43955 -0.675502 -0.0642217 0.0025 0.545384 0.427984 1.96181 0.00916786 48 4 1 2.02304e-07 
-0.434967 -0.675073 -0.147451 0.0025 0.545711 0.428359 1.96227 0.00916236 49 4 1 6.87153e-07 
-0.430388 -0.673637 -0.539011 0.0025 0.546573 0.429323 1.9635 0.00914791 50 4 1 1.2387e-06 
-0.425819 -0.67023 -0.998676 0.0025 0.54832 0.431242 1.96601 0.00911877 51 4 1 1.32608e-06 
-0.421269 -0.665219 -1.29352 0.0025 0.55089 0.434066 1.96969 0.00907621 52 4 1 1.27373e-06 
-0.416743 -0.659156 -1.53037 0.0025 0.554107 0.437622 1.97427 0.00902353 53 4 1 1.61666e-06 
-0.412246 -0.651789 -1.91689 0.0025 0.558045 0.441992 1.97987 0.00895984 54 4 1 2.19591e-06 
-0.407783 -0.642724 -2.36872 0.0025 0.562887 0.447373 1.98672 0.00888278 55 4 1 2.68931e-06 
-0.403363 -0.631849 -2.82661 0.0025 0.568682 0.45383 1.99488 0.00879227 56 4 1 2.96872e-06 
-0.398991 -0.619424 -3.18999 0.0025 0.575324 0.461258 2.00417 0.00869075 57 4 1 2.93354e-06 
-0.394671 -0.606007 -3.39832 0.0025 0.582557 0.469382 2.0142 0.00858286 58 4 1 2.68637e-06 
-0.390407 -0.592271 -3.47053 0.0025 0.590083 0.477883 2.02457 0.00847338 59 4 1 2.44671e-06 
-0.386198 -0.578518 -3.49779 0.0025 0.597701 0.486534 2.03498 0.00836539 60 4 1 2.19615e-06 
-0.382042 -0.56502 -3.44791 0.0025 0.605271 0.495176 2.04525 0.00826076 61 4 1 1.93967e-06 
-0.377937 -0.551972 -3.37286 0.0025 0.612687 0.503688 2.05523 0.00816077 62 4 1 1.77828e-06 
-0.37388 -0.539355 -3.30732 0.0025 0.619924 0.512034 2.06491 0.0080655 63 4 1 1.62421e-06 
-0.369871 -0.527192 -3.21733 0.0025 0.626968 0.520197 2.07425 0.00797489 64 4 1 1.51866e-06 
-0.365905 -0.515492 -3.15552 0.0025 0.63383 0.528186 2.0833 0.00788855 65 4 1 1.50127e-06 
-0.361982 -0.504123 -3.12195 0.0025 0.640567 0.536065 2.09213 0.00780559 66 4 1 1.54753e-06 
-0.3581 -0.492952 -3.13513 0.0025 0.647257 0.543923 2.10083 0.0077249 67 4 1 1.64256e-06 
-0.354257 -0.481763 -3.18603 0.0025 0.653989 0.551863 2.10954 0.00764539 68 4 1 1.80695e-06 
-0.350454 -0.470406 -3.30941 0.0025 0.660864 0.560005 2.11838 0.00756585 69 4 1 1.92715e-06 
-0.346691 -0.458802 -3.4135 0.0025 0.667938 0.568414 2.12742 0.00748573 70 4 1 2.0087e-06 
-0.342968 -0.446961 -3.54513 0.0025 0.675219 0.577108 2.13667 0.007405 71 4 1 2.06419e-06 
-0.339286 -0.434842 -3.64984 0.0025 0.682702 0.586078 2.1461 0.00732384 72 4 1 2.01871e-06 
-0.335644 -0.422651 -3.70716 0.0025 0.690322 0.595253 2.15565 0.00724299 73 4 1 1.9693e-06 
-0.332042 -0.410436 -3.75713 0.0025 0.698028 0.604574 2.16524 0.00716304 74 4 1 1.95809e-06 
-0.328481 -0.398184 -3.81318 0.0025 0.705804 0.614022 2.17486 0.00708412 75 4 1 1.89517e-06 
-0.324958 -0.386029 -3.82317 0.0025 0.713615 0.623553 2.18445 0.00700658 76 4 1 1.81771e-06 
-0.321474 -0.373964 -3.833 0.0025 0.72142 0.63312 2.19397 0.00693078 77 4 1 1.79035e-06 
-0.318027 -0.362036 -3.85283 0.0025 0.72922 0.642723 2.20343 0.00685664 78 4 1 1.73017e-06 
-0.314617 -0.350243 -3.84206 0.0025 0.737 0.652343 2.2128 0.00678426 79 4 1 1.70445e-06 
-0.311243 -0.338559 -3.86968 0.0025 0.744765 0.661985 2.22209 0.00671353 80 4 1 1.68539e-06 
-0.307903 -0.326978 -3.87593 0.0025 0.752525 0.67166 2.23132 0.0066443 81 4 1 1.60954e-06 
-0.304598 -0.315541 -3.86236 0.0025 0.760252 0.681334 2.24046 0.00657677 82 4 1 1.59268e-06 
-0.301326 -0.304244 -3.88532 0.0025 0.767956 0.691019 2.24951 0.00651079 83 4 1 1.54481e-06 
-0.298087 -0.293059 -3.86303 0.0025 0.775634 0.700709 2.25848 0.00644634 84 4 1 1.53881e-06 
-0.29488 -0.282014 -3.90562 0.0025 0.783298 0.710421 2.26737 0.00638327 85 4 1 1.5106e-06 
-0.291704 -0.271023 -3.88948 0.0025 0.790954 0.72016 2.27621 0.00632148 86 4 1 1.46496e-06 
-0.288558 -0.26018 -3.90908 0.0025 0.798587 0.729907 2.28497 0.00626106 87 4 1 1.42888e-06 
-0.285443 -0.249432 -3.89183 0.0025 0.806193 0.739658 2.29365 0.00620199 88 4 1 1.40119e-06 
-0.282356 -0.238831 -3.9108 0.0025 0.813774 0.749412 2.30225 0.00614421 89 4 1 1.36685e-06 
-0.279298 -0.228307 -3.89088 0.0025 0.821328 0.75917 2.31077 0.0060877 90 4 1 1.35492e-06 
-0.276268 -0.217948 -3.92189 0.0025 0.828865 0.768942 2.31923 0.00603234 91 4 1 1.3735e-06 
-0.273266 -0.20755 -3.94774 0.0025 0.836417 0.778764 2.32766 0.00597788 92 4 1 1.26192e-06 
-0.27029 -0.197391 -3.88623 0.0025 0.843921 0.788564 2.33599 0.00592473 93 4 1 1.30598e-06 
-0.267341 -0.187251 -3.97972 0.0025 0.851418 0.798388 2.34427 0.00587256 94 4 1 1.22357e-06 
-0.264418 -0.177211 -3.87247 0.0025 0.85888 0.808198 2.35246 0.00582153 95 4 1 1.15815e-06 
-0.261519 -0.167451 -3.9089 0.0025 0.866271 0.817958 2.36054 0.00577187 96 4 1 1.30426e-06 
-0.258646 -0.157532 -3.99752 0.0025 0.873719 0.827815 2.36864 0.00572266 97 4 1 1.1294e-06 
-0.255796 -0.147794 -3.86179 0.0025 0.881118 0.837645 2.37664 0.00567461 98 4 1 1.14866e-06 
-0.252971 -0.138286 -3.97894 0.0025 0.888482 0.847468 2.38456 0.00562758 99 4 1 1.27208e-06 
-0.250169 -0.128523 -4.02682 0.0025 0.895923 0.85741 2.39253 0.00558084 100 4 1 9.36134e-07 
-0.24739 -0.119166 -3.77847 0.0025 0.90321 0.86719 2.40029 0.00553581 101 4 1 1.00421e-06 
-0.244633 -0.110076 -3.9272 0.0025 0.910407 0.876893 2.40792 0.00549205 102 4 1 1.3041e-06 
-0.241898 -0.100582 -4.08475 0.0025 0.917768 0.886821 2.4157 0.005448 103 4 1 8.85842e-07 
-0.239185 -0.0914158 -3.74401 0.0025 0.924996 0.896609 2.42329 0.00540543 104 4 1 8.5171e-07 
-0.236492 -0.0827378 -3.85923 0.0025 0.932065 0.906239 2.43067 0.00536443 105 4 1 1.38851e-06 
-0.23382 -0.0734535 -4.22614 0.0025 0.939409 0.916241 2.43832 0.00532249 106 4 1 9.78154e-07 
-0.23117 -0.0641901 -3.86937 0.0025 0.94672 0.926217 2.4459 0.00528139 107 4 1 4.50216e-07 
-0.228539 -0.0559446 -3.57446 0.0025 0.953577 0.935634 2.45296 0.00524341 108 4 1 7.6845e-07 
-0.225926 -0.047762 -3.71007 0.0025 0.960308 0.944909 2.45986 0.00520666 109 4 1 1.21269e-06 
-0.223332 -0.03931 -4.0386 0.0025 0.967318 0.954589 2.46703 0.00516893 110 4 1 1.41839e-06 
-0.220757 -0.0300817 -4.38028 0.0025 0.974685 0.964754 2.47456 0.00512986 111 4 1 2.90834e-07 
-0.218202 -0.0214809 -3.31204 0.0025 0.98152 0.974184 2.48149 0.00509414 112 4 1 -8.09874e-07 
-0.215663 -0.0155776 -2.29419 0.0025 0.987051 0.981952 2.487 0.00506559 113 4 1 1.6165e-06 
-0.213136 -0.0087079 -4.53367 0.0025 0.993336 0.990808 2.49333 0.00503354 114 4 1 3.38998e-06 
-0.210629 0.0026557 -5.82238 0.0025 1.00166 1.00231 2.5018 0.0049917 115 4 1 -1.33838e-06 
-0.208145 0.0111141 -1.84767 0.0025 1.0081 1.01119 2.50822 0.0049598 116 4 1 -4.08873e-06 
-0.20567 0.0119551 0.727567 0.0025 1.0103 1.01448 2.51022 0.00494902 117 4 1 1.67172e-06 
-0.203196 0.0145509 -3.97346 0.0025 1.01366 1.01937 2.51357 0.00493262 118 4 1 4.54328e-06 
-0.200737 0.025352 -5.40716 0.0025 1.02071 1.02906 2.52073 0.00489857 119 4 1 -2.1872e-06 
-0.198297 0.0313474 -0.8176 0.0025 1.0255 1.0357 2.52544 0.00487569 120 4 1 -4.02692e-06 
-0.195861 0.0309415 0.71887 0.0025 1.02568 1.03607 2.52554 0.00487483 121 3 1 -1.41074e-06 
-0.193422 0.028854 1.17591 0.0025 1.02396 1.0337 2.52384 0.00488299 122 4 1 -3.57354e-07 
-0.190978 0.0262363 1.32253 0.0025 1.02173 1.03055 2.52162 0.00489368 123 4 1 -5.14955e-08 
-0.188529 0.0234246 1.38399 0.0025 1.01931 1.02715 2.51923 0.00490526 124 4 1 5.64653e-08 
-0.186073 0.0205351 1.40616 0.0025 1.01685 1.02368 2.51679 0.00491716 125 4 1 1.14541e-07 
-0.183611 0.0176348 1.40001 0.0025 1.01439 1.02021 2.51435 0.00492907 126 4 1 1.66044e-07 
-0.181144 0.0147921 1.35966 0.0025 1.012 1.01686 2.51197 0.0049407 127 4 1 2.17045e-07 
-0.178671 0.0120863 1.27997 0.0025 1.00975 1.0137 2.50973 0.0049517 128 4 1 2.61301e-07 
-0.176192 0.00959945 1.16161 0.0025 1.00771 1.01082 2.50769 0.00496175 129 4 1 2.89987e-07 
-0.173709 0.00740066 1.01295 0.0025 1.00592 1.00831 2.5059 0.00497059 130 4 1 2.978e-07 
-0.171222 0.0055341 0.847653 0.0025 1.00441 1.00619 2.5044 0.00497806 131 4 1 2.84826e-07 
-0.168731 0.00401318 0.680829 0.0025 1.00319 1.00447 2.50318 0.00498413 132 4 1 2.55601e-07 
-0.166237 0.00282264 0.525478 0.0025 1.00223 1.00314 2.50223 0.00498885 133 4 1 2.16767e-07 
-0.163742 0.00192606 0.390365 0.0025 1.00152 1.00214 2.50152 0.00499241 134 4 1 1.74831e-07 
-0.161245 0.00127539 0.27959 0.0025 1.00101 1.00141 2.501 0.00499498 135 4 1 1.34802e-07 
-0.158747 0.000819638 0.193354 0.0025 1.00065 1.00091 2.50064 0.00499678 136 4 1 9.97625e-08 
-0.156248 0.000511132 0.129254 0.0025 1.0004 1.00057 2.5004 0.00499799 137 4 1 7.10712e-08 
-0.153749 0.000309149 0.0835761 0.0025 1.00024 1.00034 2.50024 0.00499879 138 4 1 4.8833e-08 
-0.151249 0.000181197 0.0522787 0.0025 1.00014 1.0002 2.50014 0.00499929 139 4 1 3.23972e-08 
-0.14875 0.000102783 0.0316233 0.0025 1.00008 1.00011 2.50008 0.0049996 140 4 1 2.07614e-08 
-0.14625 5.6324e-05 0.0184811 0.0025 1.00004 1.00006 2.50004 0.00499978 141 4 1 1.2849e-08 
-0.14375 2.97452e-05 0.0104191 0.0025 1.00002 1.00003 2.50002 0.00499988 142 4 1 7.67379e-09 
-0.14125 1.50899e-05 0.00565399 0.0025 1.00001 1.00002 2.50001 0.00499994 143 4 1 4.41661e-09 
-0.13875 7.32158e-06 0.00294425 0.0025 1.00001 1.00001 2.50001 0.00499997 144 4 1 2.44472e-09 
-0.13625 3.37731e-06 0.00146505 0.0025 1 1 2.5 0.00499999 145 4 1 1.29777e-09 
-0.13375 1.46846e-06 0.000692478 0.0025 1 1 2.5 0.00499999 146 4 1 6.58075e-10 
-0.13125 5.94135e-07 0.000308223 0.0025 1 1 2.5 0.005 147 4 1 3.16988e-10 
-0.12875 2.19063e-07 0.000127469 0.0025 1 1 2.5 0.005 148 4 1 1.4387e-10 
-0.12625 7.08694e-08 4.78885e-05 0.0025 1 1 2.5 0.005 149 4 1 6.07519e-11 
-0.12375 1.85267e-08 1.5644e-05 0.0025 1 1 2.5 0.005 150 4 1 2.33506e-11 
-0.12125 2.98683e-09 3.97474e-06 0.0025 1 1 2.5 0.005 151 4 1 7.94287e-12 
-0.11875 -2.58096e-10 3.69698e-07 0.0025 1 1 2.5 0.005 152 4 1 2.1723e-12 
-0.11625 1.53835e-10 -4.1516e-07 0.0025 1 1 2.5 0.005 153 5 1 1.23624e-13 
-0.11375 4.47246e-10 -1.93525e-08 0.0025 1 1 2.5 0.005 154 3 1 -2.21917e-13 
-0.11125 3.58032e-10 7.0818e-08 0.0025 1 1 2.5 0.005 155 4 1 -3.17645e-14 
-0.10875 2.14614e-10 6.91839e-08 0.0025 1 1 2.5 0.005 156 4 1 2.31996e-14 
-0.10625 1.07721e-10 4.47752e-08 0.0025 1 1 2.5 0.005 157 4 1 2.84732e-14 
-0.10375 4.64603e-11 2.35423e-08 0.0025 1 1 2.5 0.005 158 4 1 1.98042e-14 
-0.10125 1.70352e-11 1.04595e-08 0.0025 1 1 2.5 0.005 159 4 1 1.07814e-14 
-0.09875 5.04058e-12 3.89662e-09 0.0025 1 1 2.5 0.005 160 4 1 4.95426e-15 
-0.09625 1.00295e-12 1.13391e-09 0.0025 1 1 2.5 0.005 161 4 1 1.88969e-15 
-0.09375 7.18014e-15 2.14754e-10 0.0025 1 1 2.5 0.005 162 4 1 5.74474e-16 
-0.09125 -3.26941e-14 -8.58336e-11 0.0025 1 1 2.5 0.005 163 5 1 1.01252e-16 
-0.08875 5.21975e-14 -2.08615e-11 0.0025 1 1 2.5 0.005 164 4 1 -4.15668e-17 
-0.08625 4.90001e-14 1.06297e-11 0.0025 1 1 2.5 0.005 165 3 1 -1.52767e-17 
-0.08375 2.69185e-14 1.11413e-11 0.0025 1 1 2.5 0.005 166 4 1 4.9738e-18 
-0.08125 7.07009e-15 9.60654e-12 0.0025 1 1 2.5 0.005 167 4 1 2.84217e-18 
-0.07875 -2.94813e-15 1.25056e-12 0.0025 1 1 2.5 0.005 168 5 1 9.59233e-18 
-0.07625 -4.95073e-16 -2.84217e-13 0.0025 1 1 2.5 0.005 169 5 1 -7.4607e-18 
-0.07375 -1.26798e-15 -2.27374e-13 0.0025 1 1 2.5 0.005 170 5 1 5.68434e-18 
-0.07125 1.57635e-15 -1.23314e-43 0.0025 1 1 2.5 0.005 171 5 1 -1.24345e-17 
-0.06875 2.18138e-16 1.7053e-13 0.0025 1 1 2.5 0.005 172 5 1 1.10134e-17 
-0.06625 1.89386e-15 -7.10961e-27 0.0025 1 1 2.5 0.005 173 5 1 -1.59872e-17 
-0.06375 9.866e-16 -5.68434e-14 0.0025 1 1 2.5 0.005 174 4 1 -2.13163e-18 
-0.06125 -1.55446e-15 5.76855e-27 0.0025 1 1 2.5 0.005 175 3 1 3.09086e-17 
-0.05875 2.79344e-15 1.13687e-13 0.0025 1 1 2.5 0.005 176 4 1 -2.4869e-17 
-0.05625 1.08034e-15 2.27374e-13 0.0025 1 1 2.5 0.005 177 5 1 2.13163e-18 
-0.05375 9.59749e-16 -7.88861e-29 0.0025 1 1 2.5 0.005 178 4 1 3.55271e-19 
-0.05125 -3.8868e-16 -5.68434e-14 0.0025 1 1 2.5 0.005 179 5 1 -1.42109e-18 
-0.04875 2.2534e-15 -5.68434e-14 0.0025 1 1 2.5 0.005 180 5 1 -3.90799e-18 
-0.04625 1.86979e-16 -1.7053e-13 0.0025 1 1 2.5 0.005 181 5 1 3.55271e-18 
-0.04375 -9.04649e-16 -5.68434e-14 0.0025 1 1 2.5 0.005 182 5 1 -8.17124e-18 
-0.04125 -1.62658e-15 3.9443e-29 0.0025 1 1 2.5 0.005 183 5 1 3.90799e-18 
-0.03875 7.67685e-16 -1.85382e-27 0.0025 1 1 2.5 0.005 184 5 1 -9.9476e-18 
-0.03625 -3.34933e-16 -5.68434e-14 0.0025 1 1 2.5 0.005 185 4 1 -2.84217e-18 
-0.03375 -4.34534e-15 -3.41061e-13 0.0025 1 1 2.5 0.005 186 4 1 -5.32907e-18 
-0.03125 -9.6757e-16 6.82121e-13 0.0025 1 1 2.5 0.005 187 3 1 3.97904e-17 
-0.02875 -6.59003e-16 3.41061e-13 0.0025 1 1 2.5 0.005 188 4 1 -3.44613e-17 
-0.02625 -6.24435e-16 -2.27374e-13 0.0025 1 1 2.5 0.005 189 5 1 9.23706e-18 
-0.02375 -8.78913e-16 -1.13687e-13 0.0025 1 1 2.5 0.005 190 3 1 -2.84217e-18 
-0.02125 3.99377e-16 3.41061e-13 0.0025 1 1 2.5 0.005 191 4 1 5.68434e-18 
-0.01875 -2.08765e-15 1.06496e-27 0.0025 1 1 2.5 0.005 192 5 1 -7.10543e-18 
-0.01625 -1.88477e-15 -5.68434e-14 0.0025 1 1 2.5 0.005 193 4 1 1.77636e-18 
-0.01375 -1.4103e-15 -1.13687e-13 0.0025 1 1 2.5 0.005 194 3 1 3.55271e-19 
-0.01125 -6.10203e-16 1.13687e-13 0.0025 1 1 2.5 0.005 195 4 1 -1.42109e-18 
-0.00875 -1.14232e-15 -3.9443e-29 0.0025 1 1 2.5 0.005 196 5 1 2.46519e-33 
-0.00625 -3.25251e-16 -7.88861e-29 0.0025 1 1 2.5 0.005 197 4 1 1.2326e-33 
-0.00375 -2.5527e-16 3.97904e-13 0.0025 1 1 2.5 0.005 198 4 1 1.42109e-18 
-0.00125 -7.1481e-17 -4.54747e-13 0.0025 1 1 2.5 0.005 199 5 1 2.46519e-33 
0.00125 -1.64949e-16 5.68434e-14 0.0025 1 1 2.5 0.005 200 3 1 0 
0.00375 -5.93725e-16 1.13687e-13 0.0025 1 1 2.5 0.005 201 3 1 3.55271e-19 
0.00625 -4.37085e-16 -2.84217e-13 0.0025 1 1 2.5 0.005 202 3 1 -7.10543e-19 
0.00875 2.33029e-16 3.41061e-13 0.0025 1 1 2.5 0.005 203 4 1 1.2326e-33 
0.01125 8.86975e-16 1.13687e-13 0.0025 1 1 2.5 0.005 204 4 1 1.77636e-18 
0.01375 1.09647e-15 7.95808e-13 0.0025 1 1 2.5 0.005 205 5 1 -2.84217e-18 
0.01625 1.53357e-15 -1.25056e-12 0.0025 1 1 2.5 0.005 206 4 1 -1.42109e-18 
0.01875 1.67545e-15 6.82121e-13 0.0025 1 1 2.5 0.005 207 4 1 -1.77636e-18 
0.02125 1.24448e-15 5.68434e-13 0.0025 1 1 2.5 0.005 208 3 1 -2.13163e-18 
0.02375 2.38747e-15 1.26218e-27 0.0025 1 1 2.5 0.005 209 4 1 1.52767e-17 
0.02625 -8.0091e-16 -5.80799e-27 0.0025 1 1 2.5 0.005 210 5 1 -1.77636e-17 
0.02875 2.03273e-15 5.68434e-14 0.0025 1 1 2.5 0.005 211 4 1 8.52651e-18 
0.03125 3.5131e-15 -1.7053e-13 0.0025 1 1 2.5 0.005 212 3 1 1.03029e-17 
0.03375 4.51781e-15 -5.68434e-14 0.0025 1 1 2.5 0.005 213 4 1 3.55271e-19 
0.03625 1.26018e-15 -5.68434e-14 0.0025 1 1 2.5 0.005 214 5 1 -1.84741e-17 
0.03875 3.09031e-15 -5.68434e-14 0.0025 1 1 2.5 0.005 215 3 1 1.98952e-17 
0.04125 1.44944e-15 -5.68434e-14 0.0025 1 1 2.5 0.005 216 4 1 -9.9476e-18 
0.04375 2.8297e-15 -1.45939e-27 0.0025 1 1 2.5 0.005 217 4 1 -9.23706e-18 
0.04625 2.57994e-15 2.84217e-13 0.0025 1 1 2.5 0.005 218 4 1 1.49214e-17 
0.04875 3.81431e-15 -2.04636e-12 0.0025 1 1 2.5 0.005 219 5 1 -8.52651e-18 
0.05125 5.06993e-15 7.95808e-13 0.0025 1 1 2.5 0.005 220 5 1 -9.23706e-18 
0.05375 3.02326e-15 6.82121e-13 0.0025 1 1 2.5 0.005 221 4 1 1.06581e-17 
0.05625 1.74424e-15 9.09495e-13 0.0025 1 1 2.5 0.005 222 5 1 1.63425e-17 
0.05875 1.33488e-15 -1.36424e-12 0.0025 1 1 2.5 0.005 223 4 1 -8.3844e-17 
0.06125 4.08319e-15 1.53477e-12 0.0025 1 1 2.5 0.005 224 3 1 7.99361e-17 
0.06375 4.05402e-15 -7.38964e-13 0.0025 1 1 2.5 0.005 225 4 1 1.77636e-18 
0.06625 -4.28911e-17 -5.68434e-13 0.0025 1 1 2.5 0.005 226 5 1 -3.30402e-17 
0.06875 4.49651e-15 -5.68434e-14 0.0025 1 1 2.5 0.005 227 5 1 1.88294e-17 
0.07125 2.08907e-16 -1.13687e-13 0.0025 1 1 2.5 0.005 228 5 1 -1.52767e-17 
0.07375 4.11147e-15 4.54747e-13 0.0025 1 1 2.5 0.005 229 5 1 7.10543e-18 
