# Time [s]: 0.243278
# Columns: pos [m], vel [m/s], acc [m/s^2], mass [kg], dens [kg/m^3], pres [Pa], ene [J/kg], sml [m], id, neighbor, alpha, gradh, ...additional?
1.33848 -0.673131 0.000718123 0.0025 0.511026 0.432697 2.15246 0.00978424 0 4 1 -0.000134225 
1.34326 -0.673137 0.000753306 0.0025 0.536881 0.426159 1.95 0.00931306 1 4 1 0.000179248 
1.3478 -0.673143 0.000811297 0.0025 0.548209 0.430827 1.96846 0.00912062 2 3 1 -1.90585e-05 
1.35238 -0.673149 0.000901346 0.0025 0.545942 0.429161 1.9646 0.00915848 3 5 1 3.48579e-06 
1.35696 -0.673156 0.00102149 0.0025 0.546338 0.429314 1.96453 0.00915184 4 4 1 -1.38987e-07 
1.36153 -0.673163 0.00116348 0.0025 0.546347 0.429282 1.9643 0.0091517 5 4 1 1.43345e-07 
1.36611 -0.67317 0.00131653 0.0025 0.546367 0.429278 1.96424 0.00915135 6 4 1 -3.92942e-09 
1.37068 -0.673177 0.00147221 0.0025 0.546378 0.429272 1.96417 0.00915118 7 4 1 7.79882e-09 
1.37526 -0.673185 0.00162898 0.0025 0.546389 0.429267 1.96411 0.009151 8 4 1 4.31573e-09 
1.37983 -0.673194 0.00179431 0.0025 0.546397 0.429263 1.96406 0.00915085 9 4 1 4.99711e-09 
1.38441 -0.673202 0.00198079 0.0025 0.546405 0.429258 1.96401 0.00915073 10 4 1 -2.77499e-09 
1.38898 -0.673211 0.00219492 0.0025 0.546411 0.429253 1.96396 0.00915062 11 4 1 4.1277e-09 
1.39356 -0.673221 0.00242529 0.0025 0.546416 0.429247 1.96392 0.00915053 12 4 1 2.21501e-09 
1.39814 -0.673231 0.00264492 0.0025 0.54642 0.42924 1.96387 0.00915048 13 4 1 2.95702e-09 
1.40271 -0.673243 0.00283451 0.0025 0.546421 0.429233 1.96384 0.00915045 14 4 1 1.55608e-09 
1.40729 -0.673255 0.00301076 0.0025 0.546422 0.429225 1.9638 0.00915043 15 4 1 -2.14279e-09 
1.41186 -0.673268 0.00322685 0.0025 0.546422 0.429217 1.96376 0.00915043 16 3 1 4.22817e-09 
1.41644 -0.673283 0.00353094 0.0025 0.546421 0.429208 1.96373 0.00915046 17 4 1 6.03302e-10 
1.42101 -0.673299 0.00391499 0.0025 0.546418 0.429199 1.96369 0.0091505 18 4 1 -2.2478e-09 
1.42559 -0.673317 0.00431235 0.0025 0.546414 0.429188 1.96366 0.00915057 19 4 1 1.60357e-09 
1.43016 -0.673336 0.00466385 0.0025 0.546409 0.429176 1.96362 0.00915065 20 4 1 1.29137e-10 
1.43474 -0.673357 0.00499351 0.0025 0.546402 0.429163 1.96359 0.00915076 21 4 1 1.30144e-10 
1.43931 -0.67338 0.00540647 0.0025 0.546394 0.42915 1.96355 0.0091509 22 4 1 -2.48731e-10 
1.44389 -0.673406 0.00599327 0.0025 0.546385 0.429134 1.96352 0.00915106 23 4 1 -1.8939e-09 
1.44846 -0.673435 0.00673468 0.0025 0.546374 0.429118 1.96348 0.00915124 24 4 1 -6.10856e-10 
1.45304 -0.673466 0.00752002 0.0025 0.54636 0.429099 1.96344 0.00915147 25 4 1 -1.51018e-09 
1.45761 -0.6735 0.0082747 0.0025 0.546345 0.429078 1.9634 0.00915173 26 4 1 -2.65277e-09 
1.46219 -0.673539 0.00905776 0.0025 0.546327 0.429055 1.96336 0.00915202 27 4 1 -1.26494e-09 
1.46677 -0.673582 0.0100148 0.0025 0.546307 0.42903 1.96332 0.00915236 28 4 1 -2.12664e-09 
1.47134 -0.673631 0.0112456 0.0025 0.546284 0.429001 1.96327 0.00915274 29 4 1 -4.48038e-09 
1.47592 -0.673685 0.0127397 0.0025 0.546258 0.428969 1.96322 0.00915318 30 4 1 -3.93322e-09 
1.4805 -0.673746 0.0144272 0.0025 0.546228 0.428933 1.96316 0.00915369 31 4 1 -3.07546e-09 
1.48507 -0.673814 0.0162595 0.0025 0.546193 0.428893 1.9631 0.00915427 32 4 1 -6.40598e-09 
1.48965 -0.67389 0.0182404 0.0025 0.546154 0.428847 1.96303 0.00915493 33 4 1 -6.88785e-09 
1.49423 -0.673977 0.0204172 0.0025 0.546109 0.428795 1.96296 0.00915568 34 4 1 -4.56612e-09 
1.49881 -0.674076 0.0228966 0.0025 0.546058 0.428737 1.96287 0.00915654 35 4 1 -7.74723e-09 
-0.496615 -0.674189 0.025856 0.0025 0.546001 0.428672 1.96278 0.0091575 36 4 1 -9.56378e-09 
-0.492036 -0.674314 0.0294274 0.0025 0.545936 0.428599 1.96268 0.00915858 37 4 1 -8.40228e-09 
-0.487457 -0.674454 0.0334299 0.0025 0.545863 0.428516 1.96257 0.00915981 38 4 1 -9.97817e-09 
-0.482876 -0.674607 0.0371578 0.0025 0.545781 0.428424 1.96244 0.00916119 39 4 1 -9.07107e-09 
-0.478295 -0.674776 0.0398098 0.0025 0.545691 0.428324 1.9623 0.00916269 40 4 1 -4.0638e-09 
-0.473714 -0.67496 0.0415618 0.0025 0.545597 0.42822 1.96216 0.00916427 41 4 1 -7.36541e-10 
-0.469131 -0.675156 0.043293 0.0025 0.545502 0.428113 1.96202 0.00916587 42 4 1 1.24904e-09 
-0.464548 -0.675349 0.044249 0.0025 0.545408 0.428008 1.96187 0.00916746 43 4 1 7.87871e-09 
-0.459964 -0.675526 0.04119 0.0025 0.545319 0.427911 1.96174 0.00916894 44 4 1 2.16141e-08 
-0.455379 -0.675677 0.0331454 0.0025 0.545248 0.427831 1.96163 0.00917015 45 4 1 2.47401e-08 
-0.450793 -0.675779 0.0249962 0.0025 0.545197 0.427774 1.96155 0.009171 46 4 1 4.73495e-08 
-0.446208 -0.675863 0.00678468 0.0025 0.545186 0.427765 1.96153 0.00917117 47 5 1 1.20787e-07 
-0.441622 -0.675708 -0.0653121 0.0025 0.545274 0.427861 1.96165 0.0091697 48 4 1 1.31504e-07 
-0.437038 -0.675373 -0.0720929 0.0025 0.545472 0.428083 1.96193 0.00916637 49 4 1 2.89996e-07 
-0.432456 -0.674782 -0.227632 0.0025 0.545908 0.428581 1.96255 0.00915905 50 4 1 8.58696e-07 
-0.427879 -0.672818 -0.676083 0.0025 0.546998 0.429791 1.96411 0.0091408 51 4 1 1.31294e-06 
-0.423315 -0.66891 -1.09933 0.0025 0.548996 0.431983 1.96697 0.00910754 52 4 1 1.2899e-06 
-0.418771 -0.663556 -1.3518 0.0025 0.551754 0.435018 1.97092 0.00906201 53 4 1 1.3212e-06 
-0.414253 -0.657203 -1.62517 0.0025 0.55515 0.438776 1.97576 0.00900658 54 4 1 1.73126e-06 
-0.409765 -0.649438 -2.01635 0.0025 0.559298 0.443381 1.98164 0.00893978 55 4 1 2.28272e-06 
-0.405313 -0.639972 -2.46818 0.0025 0.564348 0.448997 1.98878 0.00885979 56 4 1 2.72479e-06 
-0.400905 -0.628774 -2.89776 0.0025 0.570317 0.455654 1.99717 0.00876706 57 4 1 2.9286e-06 
-0.396546 -0.616187 -3.22452 0.0025 0.577064 0.463207 2.00658 0.00866455 58 4 1 2.81758e-06 
-0.39224 -0.602782 -3.38095 0.0025 0.584313 0.47136 2.01663 0.00855706 59 4 1 2.57011e-06 
-0.387988 -0.589176 -3.44599 0.0025 0.591792 0.479819 2.02691 0.00844891 60 4 1 2.34496e-06 
-0.383791 -0.575611 -3.45295 0.0025 0.599329 0.488388 2.0372 0.00834266 61 4 1 2.08524e-06 
-0.379645 -0.562343 -3.39228 0.0025 0.606788 0.496912 2.04729 0.00824012 62 4 1 1.86207e-06 
-0.37555 -0.549526 -3.32323 0.0025 0.614087 0.505298 2.05711 0.00814218 63 4 1 1.72082e-06 
-0.371503 -0.537124 -3.2595 0.0025 0.621213 0.513524 2.06662 0.00804877 64 4 1 1.57837e-06 
-0.367501 -0.525197 -3.17647 0.0025 0.628155 0.521576 2.07582 0.00795981 65 4 1 1.48334e-06 
-0.363543 -0.513687 -3.1183 0.0025 0.634927 0.529465 2.08474 0.00787492 66 4 1 1.45744e-06 
-0.359626 -0.502472 -3.07995 0.0025 0.641576 0.537246 2.09344 0.00779331 67 4 1 1.51535e-06 
-0.355749 -0.491392 -3.1034 0.0025 0.648186 0.545015 2.10204 0.00771384 68 4 1 1.63509e-06 
-0.351912 -0.480334 -3.16706 0.0025 0.654857 0.552888 2.11066 0.00763526 69 4 1 1.78205e-06 
-0.348114 -0.469066 -3.28179 0.0025 0.661676 0.560967 2.11942 0.00755656 70 4 1 1.8832e-06 
-0.344355 -0.457576 -3.38275 0.0025 0.668686 0.569304 2.12837 0.00747736 71 4 1 1.97436e-06 
-0.340636 -0.445848 -3.51826 0.0025 0.675902 0.577923 2.13753 0.00739753 72 4 1 2.01357e-06 
-0.336957 -0.433872 -3.60827 0.0025 0.68331 0.586807 2.14687 0.00731732 73 4 1 1.95697e-06 
-0.333319 -0.421804 -3.66248 0.0025 0.690841 0.595879 2.1563 0.00723755 74 4 1 1.931e-06 
-0.32972 -0.409751 -3.72136 0.0025 0.69846 0.605097 2.16578 0.00715861 75 4 1 1.9014e-06 
-0.32616 -0.397652 -3.75835 0.0025 0.706143 0.614433 2.17527 0.00708072 76 4 1 1.8473e-06 
-0.322639 -0.385644 -3.78338 0.0025 0.713856 0.623848 2.18474 0.00700421 77 4 1 1.77992e-06 
-0.319155 -0.373753 -3.78509 0.0025 0.721569 0.633303 2.19415 0.00692935 78 4 1 1.73341e-06 
-0.315709 -0.361954 -3.79968 0.0025 0.729268 0.642782 2.20348 0.00685619 79 4 1 1.69159e-06 
-0.312299 -0.350316 -3.79802 0.0025 0.73695 0.65228 2.21274 0.00678472 80 4 1 1.66164e-06 
-0.308924 -0.338779 -3.81586 0.0025 0.744617 0.6618 2.22191 0.00671486 81 4 1 1.64531e-06 
-0.305584 -0.327335 -3.83074 0.0025 0.752279 0.671351 2.23103 0.00664647 82 4 1 1.57499e-06 
-0.302278 -0.316047 -3.8126 0.0025 0.759912 0.680906 2.24005 0.00657971 83 4 1 1.55757e-06 
-0.299004 -0.304873 -3.841 0.0025 0.767523 0.690472 2.249 0.00651446 84 4 1 1.5066e-06 
-0.295763 -0.293838 -3.81082 0.0025 0.775106 0.700041 2.25786 0.00645073 85 4 1 1.49619e-06 
-0.292553 -0.282906 -3.85367 0.0025 0.782672 0.709626 2.26665 0.00638837 86 4 1 1.47828e-06 
-0.289374 -0.272058 -3.8403 0.0025 0.790232 0.719239 2.27538 0.00632726 87 4 1 1.43656e-06 
-0.286226 -0.261327 -3.86175 0.0025 0.797772 0.728864 2.28404 0.00626746 88 4 1 1.39482e-06 
-0.283107 -0.250706 -3.83998 0.0025 0.805286 0.738492 2.29261 0.00620898 89 4 1 1.37533e-06 
-0.280017 -0.240221 -3.86748 0.0025 0.812776 0.748126 2.30112 0.00615175 90 4 1 1.3397e-06 
-0.276955 -0.22981 -3.84164 0.0025 0.820243 0.757765 2.30955 0.00609575 91 4 1 1.3132e-06 
-0.273921 -0.219587 -3.86485 0.0025 0.827684 0.767408 2.31791 0.00604095 92 4 1 1.35105e-06 
-0.270914 -0.209294 -3.90499 0.0025 0.835144 0.777105 2.32624 0.00598699 93 4 1 1.23532e-06 
-0.267934 -0.199235 -3.83106 0.0025 0.842558 0.786781 2.33448 0.00593431 94 4 1 1.2702e-06 
-0.264979 -0.189225 -3.92672 0.0025 0.84996 0.796475 2.34266 0.00588263 95 4 1 1.22667e-06 
-0.262051 -0.179244 -3.84761 0.0025 0.857347 0.806178 2.35078 0.00583194 96 4 1 1.10603e-06 
-0.259147 -0.169587 -3.82653 0.0025 0.864645 0.815808 2.35876 0.00578272 97 4 1 1.27597e-06 
-0.256268 -0.159839 -3.96528 0.0025 0.871995 0.825531 2.36677 0.00573398 98 4 1 1.15587e-06 
-0.253413 -0.150134 -3.83866 0.0025 0.879334 0.835268 2.37471 0.00568612 99 4 1 1.04973e-06 
-0.250582 -0.140761 -3.85998 0.0025 0.886584 0.844935 2.38252 0.00563962 100 4 1 1.26303e-06 
-0.247773 -0.131146 -4.01561 0.0025 0.89392 0.854732 2.39039 0.00559334 101 4 1 1.03184e-06 
-0.244988 -0.12171 -3.80038 0.0025 0.901192 0.864474 2.39815 0.00554821 102 4 1 8.58498e-07 
-0.242225 -0.112766 -3.76413 0.0025 0.908279 0.874021 2.40567 0.00550492 103 4 1 1.24494e-06 
-0.239483 -0.10352 -4.05308 0.0025 0.915497 0.883758 2.4133 0.00546152 104 4 1 1.0737e-06 
-0.236764 -0.0942169 -3.83932 0.0025 0.922741 0.893547 2.42093 0.00541864 105 4 1 7.0266e-07 
-0.234065 -0.0856021 -3.6699 0.0025 0.929729 0.903052 2.42823 0.00537791 106 4 1 1.18522e-06 
-0.231386 -0.0767651 -4.08106 0.0025 0.936846 0.912752 2.43565 0.00533705 107 4 1 1.23871e-06 
-0.228728 -0.067407 -4.02934 0.0025 0.944157 0.922715 2.44325 0.00529573 108 4 1 5.80909e-07 
-0.22609 -0.0588795 -3.61643 0.0025 0.951131 0.932269 2.45045 0.0052569 109 4 1 5.68246e-07 
-0.223471 -0.050775 -3.59721 0.0025 0.957793 0.941436 2.45729 0.00522034 110 4 1 9.07535e-07 
-0.220869 -0.0426876 -3.71495 0.0025 0.964506 0.950702 2.46415 0.005184 111 4 1 1.34938e-06 
-0.218286 -0.0340552 -4.23829 0.0025 0.971596 0.960503 2.4714 0.00514617 112 4 1 1.18689e-06 
-0.215723 -0.0247966 -4.12764 0.0025 0.978859 0.970511 2.47881 0.00510799 113 4 1 -5.49195e-07 
-0.213178 -0.0174601 -2.48894 0.0025 0.984978 0.979002 2.48495 0.00507625 114 4 1 -2.71741e-07 
-0.210647 -0.0121936 -2.81559 0.0025 0.990294 0.986529 2.49024 0.00504901 115 4 1 3.03497e-06 
-0.208129 -0.00334631 -5.62694 0.0025 0.997499 0.996596 2.49756 0.00501254 116 4 1 1.9716e-06 
-0.205634 0.00797372 -4.53116 0.0025 1.00558 1.00771 2.50575 0.00497225 117 4 1 -3.53026e-06 
-0.203157 0.0128637 -0.314714 0.0025 1.00996 1.01384 2.50999 0.00495068 118 4 1 -2.30548e-06 
-0.200684 0.0124861 -0.259074 0.0025 1.0117 1.01656 2.51158 0.00494216 119 4 1 4.07877e-06 
-0.198215 0.0192022 -5.59584 0.0025 1.01677 1.02368 2.51675 0.00491752 120 4 1 1.89875e-06 
-0.195766 0.0290845 -3.25682 0.0025 1.02339 1.03275 2.52339 0.00488574 121 4 1 -3.93274e-06 
-0.193329 0.0312941 0.207807 0.0025 1.02583 1.03621 2.52572 0.00487411 122 3 1 -2.77195e-06 
-0.190892 0.0299009 0.970892 0.0025 1.02483 1.03492 2.5247 0.00487883 123 4 1 -7.56057e-07 
-0.18845 0.0275153 1.25654 0.0025 1.02282 1.0321 2.5227 0.00488844 124 4 1 -1.79675e-07 
-0.186003 0.0247905 1.35629 0.0025 1.02049 1.02881 2.52039 0.00489962 125 4 1 9.73459e-09 
-0.183551 0.0219365 1.39596 0.0025 1.01804 1.02536 2.51797 0.00491138 126 4 1 8.9728e-08 
-0.181092 0.0190432 1.40162 0.0025 1.01558 1.0219 2.51553 0.00492327 127 4 1 1.43794e-07 
-0.178627 0.0161786 1.37568 0.0025 1.01317 1.0185 2.51313 0.00493501 128 4 1 1.93542e-07 
-0.176157 0.0134156 1.31385 0.0025 1.01086 1.01525 2.51083 0.00494628 129 4 1 2.39178e-07 
-0.173681 0.0108323 1.21428 0.0025 1.00872 1.01225 2.50871 0.00495675 130 4 1 2.73813e-07 
-0.1712 0.00850169 1.08149 0.0025 1.00682 1.00957 2.5068 0.00496615 131 4 1 2.90929e-07 
-0.168715 0.00647862 0.92602 0.0025 1.00517 1.00726 2.50516 0.00497427 132 4 1 2.88031e-07 
-0.166226 0.00479095 0.761751 0.0025 1.00381 1.00535 2.5038 0.00498102 133 4 1 2.67272e-07 
-0.163734 0.00343782 0.602305 0.0025 1.00273 1.00383 2.50272 0.00498641 134 4 1 2.33955e-07 
-0.16124 0.00239407 0.458312 0.0025 1.00189 1.00266 2.50189 0.00499055 135 4 1 1.94379e-07 
-0.158743 0.00161842 0.336132 0.0025 1.00128 1.0018 2.50127 0.00499362 136 4 1 1.54111e-07 
-0.156246 0.00106225 0.237968 0.0025 1.00084 1.00118 2.50083 0.00499582 137 4 1 1.17105e-07 
-0.153748 0.000676914 0.162831 0.0025 1.00053 1.00075 2.50053 0.00499734 138 4 1 8.55705e-08 
-0.151249 0.0004187 0.107783 0.0025 1.00033 1.00046 2.50033 0.00499835 139 4 1 6.02706e-08 
-0.148749 0.000251232 0.0690491 0.0025 1.0002 1.00028 2.5002 0.00499901 140 4 1 4.09816e-08 
-0.14625 0.000146093 0.0428094 0.0025 1.00011 1.00016 2.50011 0.00499943 141 4 1 2.69233e-08 
-0.14375 8.22163e-05 0.0256721 0.0025 1.00006 1.00009 2.50006 0.00499968 142 4 1 1.70926e-08 
-0.14125 4.4692e-05 0.0148752 0.0025 1.00004 1.00005 2.50003 0.00499982 143 4 1 1.04826e-08 
-0.13875 2.34064e-05 0.00831425 0.0025 1.00002 1.00003 2.50002 0.00499991 144 4 1 6.20461e-09 
-0.13625 1.17705e-05 0.00447222 0.0025 1.00001 1.00001 2.50001 0.00499995 145 4 1 3.53914e-09 
-0.13375 5.6574e-06 0.00230758 0.0025 1 1.00001 2.5 0.00499998 146 4 1 1.94126e-09 
-0.13125 2.58253e-06 0.00113704 0.0025 1 1 2.5 0.00499999 147 4 1 1.02085e-09 
-0.12875 1.10947e-06 0.000531672 0.0025 1 1 2.5 0.005 148 4 1 5.12527e-10 
-0.12625 4.42396e-07 0.000233736 0.0025 1 1 2.5 0.005 149 4 1 2.44217e-10 
-0.12375 1.60037e-07 9.52198e-05 0.0025 1 1 2.5 0.005 150 4 1 1.09488e-10 
-0.12125 5.03439e-08 3.50514e-05 0.0025 1 1 2.5 0.005 151 4 1 4.55634e-11 
-0.11875 1.24995e-08 1.11184e-05 0.0025 1 1 2.5 0.005 152 4 1 1.71512e-11 
-0.11625 1.72551e-09 2.64428e-06 0.0025 1 1 2.5 0.005 153 4 1 5.71395e-12 
-0.11375 -2.77022e-10 5.41649e-08 0.0025 1 1 2.5 0.005 154 5 1 1.45959e-12 
-0.11125 2.22597e-10 -2.95016e-07 0.0025 1 1 2.5 0.005 155 4 1 -3.61879e-14 
-0.10875 3.87241e-10 8.95051e-09 0.0025 1 1 2.5 0.005 156 3 1 -1.60456e-13 
-0.10625 2.91936e-10 6.3473e-08 0.0025 1 1 2.5 0.005 157 4 1 -1.46997e-14 
-0.10375 1.69728e-10 5.74588e-08 0.0025 1 1 2.5 0.005 158 4 1 2.29363e-14 
-0.10125 8.3244e-11 3.56385e-08 0.0025 1 1 2.5 0.005 159 4 1 2.39176e-14 
-0.09875 3.51606e-11 1.82586e-08 0.0025 1 1 2.5 0.005 160 4 1 1.58654e-14 
-0.09625 1.25924e-11 7.9371e-09 0.0025 1 1 2.5 0.005 161 4 1 8.40288e-15 
-0.09375 3.59026e-12 2.87628e-09 0.0025 1 1 2.5 0.005 162 4 1 3.76019e-15 
-0.09125 6.65154e-13 8.08654e-10 0.0025 1 1 2.5 0.005 163 4 1 1.40545e-15 
-0.08875 -3.09753e-14 1.2642e-10 0.0025 1 1 2.5 0.005 164 4 1 4.22062e-16 
-0.08625 -1.12765e-14 -7.28733e-11 0.0025 1 1 2.5 0.005 165 5 1 5.54223e-17 
-0.08375 4.69464e-14 -6.53699e-12 0.0025 1 1 2.5 0.005 166 3 1 -4.01457e-17 
-0.08125 3.97384e-14 7.21911e-12 0.0025 1 1 2.5 0.005 167 4 1 -8.17124e-18 
-0.07875 2.03272e-14 1.08571e-11 0.0025 1 1 2.5 0.005 168 4 1 7.81597e-18 
-0.07625 2.48636e-15 6.82121e-12 0.0025 1 1 2.5 0.005 169 4 1 -3.55271e-19 
-0.07375 -2.00017e-15 -2.27374e-13 0.0025 1 1 2.5 0.005 170 5 1 8.52651e-18 
-0.07125 1.52401e-15 -5.68434e-14 0.0025 1 1 2.5 0.005 171 5 1 -1.1724e-17 
-0.06875 3.22693e-16 -5.68434e-14 0.0025 1 1 2.5 0.005 172 5 1 1.03029e-17 
-0.06625 1.92875e-15 -7.10961e-27 0.0025 1 1 2.5 0.005 173 5 1 -1.59872e-17 
-0.06375 1.0389e-15 1.13687e-13 0.0025 1 1 2.5 0.005 174 4 1 -2.4869e-18 
-0.06125 -1.5196e-15 5.76855e-27 0.0025 1 1 2.5 0.005 175 3 1 3.16192e-17 
-0.05875 2.93287e-15 1.66647e-26 0.0025 1 1 2.5 0.005 176 4 1 -2.4869e-17 
-0.05625 1.25467e-15 -1.13687e-13 0.0025 1 1 2.5 0.005 177 5 1 1.42109e-18 
-0.05375 1.04687e-15 1.7053e-13 0.0025 1 1 2.5 0.005 178 4 1 7.10543e-19 
-0.05125 -3.7123e-16 1.38051e-27 0.0025 1 1 2.5 0.005 179 5 1 -1.42109e-18 
-0.04875 1.83501e-15 -1.7053e-13 0.0025 1 1 2.5 0.005 180 5 1 -3.90799e-18 
-0.04625 -5.70576e-17 -5.68434e-14 0.0025 1 1 2.5 0.005 181 5 1 3.19744e-18 
-0.04375 -1.0441e-15 -5.68434e-14 0.0025 1 1 2.5 0.005 182 5 1 -7.4607e-18 
-0.04125 -1.59172e-15 1.13687e-13 0.0025 1 1 2.5 0.005 183 5 1 3.55271e-18 
-0.03875 -1.21472e-16 -5.11591e-13 0.0025 1 1 2.5 0.005 184 5 1 -6.03961e-18 
-0.03625 -7.0104e-16 -2.46125e-26 0.0025 1 1 2.5 0.005 185 4 1 -9.9476e-18 
-0.03375 -3.66525e-15 7.38964e-13 0.0025 1 1 2.5 0.005 186 4 1 -4.9738e-18 
-0.03125 7.40752e-16 3.41061e-13 0.0025 1 1 2.5 0.005 187 3 1 4.68958e-17 
-0.02875 -3.97601e-16 -5.68434e-14 0.0025 1 1 2.5 0.005 188 4 1 -3.8014e-17 
-0.02625 -9.03321e-16 7.88861e-29 0.0025 1 1 2.5 0.005 189 5 1 8.88178e-18 
-0.02375 -1.22756e-15 -1.13687e-13 0.0025 1 1 2.5 0.005 190 3 1 -2.13163e-18 
-0.02125 1.11409e-15 -5.68434e-14 0.0025 1 1 2.5 0.005 191 4 1 6.03961e-18 
-0.01875 -2.64561e-15 -5.68434e-13 0.0025 1 1 2.5 0.005 192 5 1 -8.52651e-18 
-0.01625 -1.41393e-15 1.47793e-12 0.0025 1 1 2.5 0.005 193 3 1 2.84217e-18 
-0.01375 -6.95552e-16 -3.97904e-13 0.0025 1 1 2.5 0.005 194 4 1 2.4869e-18 
-0.01125 -1.27262e-15 -1.13687e-13 0.0025 1 1 2.5 0.005 195 4 1 -1.77636e-18 
-0.00875 -1.45619e-15 -2.27374e-13 0.0025 1 1 2.5 0.005 196 4 1 1.2326e-33 
-0.00625 -4.99573e-16 -1.13687e-13 0.0025 1 1 2.5 0.005 197 4 1 3.77482e-33 
-0.00375 5.83697e-17 -5.68434e-14 0.0025 1 1 2.5 0.005 198 3 1 -2.13163e-18 
-0.00125 -1.93393e-16 1.7053e-13 0.0025 1 1 2.5 0.005 199 5 1 5.00742e-33 
0.00125 -2.17212e-16 1.13687e-13 0.0025 1 1 2.5 0.005 200 4 1 -1.42109e-18 
0.00375 -2.45176e-16 1.13687e-13 0.0025 1 1 2.5 0.005 201 3 1 3.55271e-19 
0.00625 -2.27673e-16 5.68434e-14 0.0025 1 1 2.5 0.005 202 4 1 -1.06581e-18 
0.00875 7.03595e-16 5.11591e-13 0.0025 1 1 2.5 0.005 203 4 1 3.55271e-19 
0.01125 1.21825e-15 -8.52651e-13 0.0025 1 1 2.5 0.005 204 4 1 2.13163e-18 
0.01375 1.18327e-15 6.25278e-13 0.0025 1 1 2.5 0.005 205 5 1 -4.9738e-18 
0.01625 9.06404e-16 4.54747e-13 0.0025 1 1 2.5 0.005 206 5 1 4.19853e-32 
0.01875 2.18079e-15 -5.68434e-14 0.0025 1 1 2.5 0.005 207 4 1 7.10543e-19 
0.02125 2.83084e-15 -1.08002e-12 0.0025 1 1 2.5 0.005 208 3 1 -3.19744e-18 
0.02375 2.82332e-15 1.3074e-12 0.0025 1 1 2.5 0.005 209 4 1 1.3145e-17 
0.02625 -1.90688e-16 2.84217e-13 0.0025 1 1 2.5 0.005 210 5 1 -2.02505e-17 
0.02875 1.94556e-15 -1.24048e-26 0.0025 1 1 2.5 0.005 211 4 1 1.35003e-17 
0.03125 2.13582e-15 -5.68434e-13 0.0025 1 1 2.5 0.005 212 3 1 7.10543e-18 
0.03375 4.63986e-15 1.24048e-26 0.0025 1 1 2.5 0.005 213 4 1 1.06581e-18 
0.03625 1.10329e-15 -1.41995e-27 0.0025 1 1 2.5 0.005 214 5 1 -1.88294e-17 
0.03875 3.00315e-15 0 0.0025 1 1 2.5 0.005 215 3 1 1.98952e-17 
0.04125 1.27511e-15 -5.68434e-14 0.0025 1 1 2.5 0.005 216 4 1 -9.9476e-18 
0.04375 2.5159e-15 -1.13687e-13 0.0025 1 1 2.5 0.005 217 4 1 -9.23706e-18 
0.04625 2.75416e-15 -5.68434e-14 0.0025 1 1 2.5 0.005 218 3 1 1.49214e-17 
0.04875 2.62979e-15 1.13687e-13 0.0025 1 1 2.5 0.005 219 4 1 -8.17124e-18 
0.05125 2.34937e-15 -3.28265e-26 0.0025 1 1 2.5 0.005 220 4 1 -6.03961e-18 
0.05375 3.6683e-15 -1.98952e-12 0.0025 1 1 2.5 0.005 221 3 1 1.24345e-17 
0.05625 4.95182e-15 1.36424e-12 0.0025 1 1 2.5 0.005 222 4 1 1.38556e-17 
0.05875 2.10267e-15 1.93268e-12 0.0025 1 1 2.5 0.005 223 5 1 -8.41993e-17 
0.06125 1.1359e-15 -2.72848e-12 0.0025 1 1 2.5 0.005 224 4 1 8.59757e-17 
0.06375 5.50152e-15 7.95808e-13 0.0025 1 1 2.5 0.005 225 3 1 -6.75016e-18 
0.06625 -6.00603e-16 4.54747e-13 0.0025 1 1 2.5 0.005 226 5 1 -2.94875e-17 
0.06875 4.1827e-15 -1.7053e-13 0.0025 1 1 2.5 0.005 227 5 1 1.88294e-17 
0.07125 8.01718e-16 4.54747e-13 0.0025 1 1 2.5 0.005 228 5 1 -1.88294e-17 
