# Time [s]: 0.250029
# Columns: pos [m], vel [m/s], acc [m/s^2], mass [kg], dens [kg/m^3], pres [Pa], ene [J/kg], sml [m], id, neighbor, alpha, gradh, ...additional?
1.33393 -0.673127 0.000579009 0.0025 0.51103 0.432702 2.15247 0.00978416 0 4 1 -0.000134225 
1.33871 -0.673132 0.000641437 0.0025 0.536885 0.426164 1.95001 0.00931298 1 4 1 0.000179248 
1.34325 -0.673138 0.00072709 0.0025 0.548213 0.430832 1.96847 0.00912054 2 3 1 -1.90586e-05 
1.34784 -0.673143 0.000837217 0.0025 0.545947 0.429166 1.96461 0.0091584 3 5 1 3.48569e-06 
1.35241 -0.673149 0.000961871 0.0025 0.546343 0.429319 1.96454 0.00915175 4 4 1 -1.39001e-07 
1.35699 -0.673155 0.00109195 0.0025 0.546352 0.429288 1.96431 0.00915161 5 4 1 1.43375e-07 
1.36156 -0.673161 0.00122308 0.0025 0.546373 0.429284 1.96424 0.00915126 6 4 1 -3.87543e-09 
1.36614 -0.673168 0.00135808 0.0025 0.546383 0.429278 1.96418 0.00915108 7 4 1 7.85126e-09 
1.37071 -0.673175 0.00150502 0.0025 0.546395 0.429274 1.96412 0.0091509 8 4 1 4.34752e-09 
1.37529 -0.673182 0.00166995 0.0025 0.546404 0.42927 1.96407 0.00915074 9 4 1 5.01663e-09 
1.37986 -0.673189 0.00184793 0.0025 0.546411 0.429265 1.96402 0.00915062 10 4 1 -2.72666e-09 
1.38444 -0.673197 0.00202151 0.0025 0.546418 0.42926 1.96397 0.0091505 11 4 1 4.25144e-09 
1.38902 -0.673206 0.00217353 0.0025 0.546424 0.429255 1.96393 0.00915041 12 4 1 2.41463e-09 
1.39359 -0.673215 0.00230726 0.0025 0.546428 0.429249 1.96389 0.00915034 13 4 1 3.15969e-09 
1.39817 -0.673225 0.00245387 0.0025 0.54643 0.429243 1.96385 0.0091503 14 4 1 1.66103e-09 
1.40274 -0.673236 0.0026519 0.0025 0.546432 0.429236 1.96381 0.00915027 15 4 1 -2.16313e-09 
1.40732 -0.673248 0.00291093 0.0025 0.546433 0.429229 1.96378 0.00915025 16 3 1 4.18776e-09 
1.41189 -0.673261 0.00319623 0.0025 0.546432 0.429221 1.96374 0.00915026 17 4 1 7.08062e-10 
1.41647 -0.673275 0.00345971 0.0025 0.546431 0.429212 1.96371 0.00915029 18 4 1 -1.93866e-09 
1.42104 -0.67329 0.00369452 0.0025 0.546428 0.429203 1.96367 0.00915034 19 4 1 1.97883e-09 
1.42562 -0.673307 0.00395591 0.0025 0.546424 0.429193 1.96364 0.0091504 20 4 1 3.48965e-10 
1.43019 -0.673325 0.00431616 0.0025 0.546419 0.429182 1.96361 0.00915048 21 4 1 1.28408e-10 
1.43477 -0.673346 0.00479242 0.0025 0.546413 0.42917 1.96358 0.00915059 22 4 1 -2.7391e-10 
1.43934 -0.673368 0.00532655 0.0025 0.546405 0.429157 1.96355 0.00915072 23 4 1 -1.65554e-09 
1.44392 -0.673392 0.00584788 0.0025 0.546396 0.429142 1.96351 0.00915087 24 4 1 -3.50539e-11 
1.44849 -0.673419 0.00635646 0.0025 0.546385 0.429126 1.96348 0.00915106 25 4 1 -8.28804e-10 
1.45307 -0.673449 0.0069344 0.0025 0.546372 0.429108 1.96344 0.00915127 26 4 1 -2.15996e-09 
1.45764 -0.673482 0.00767368 0.0025 0.546358 0.429089 1.96341 0.00915151 27 4 1 -1.00494e-09 
1.46222 -0.673519 0.00860241 0.0025 0.546341 0.429067 1.96337 0.00915179 28 4 1 -1.86031e-09 
1.4668 -0.67356 0.00968191 0.0025 0.546322 0.429043 1.96333 0.00915211 29 4 1 -3.92887e-09 
1.47137 -0.673606 0.0108584 0.0025 0.5463 0.429016 1.96328 0.00915247 30 4 1 -2.99809e-09 
1.47595 -0.673656 0.0121098 0.0025 0.546275 0.428986 1.96323 0.00915289 31 4 1 -1.85002e-09 
1.48053 -0.673714 0.0134634 0.0025 0.546247 0.428951 1.96318 0.00915338 32 4 1 -5.07716e-09 
1.4851 -0.673778 0.0150062 0.0025 0.546214 0.428913 1.96312 0.00915392 33 4 1 -5.68644e-09 
1.48968 -0.673852 0.0168852 0.0025 0.546178 0.428871 1.96306 0.00915453 34 4 1 -3.72013e-09 
1.49426 -0.673935 0.0192422 0.0025 0.546136 0.428822 1.96299 0.00915523 35 4 1 -7.26413e-09 
1.49883 -0.674027 0.0220562 0.0025 0.546088 0.428768 1.96291 0.00915604 36 4 1 -8.95996e-09 
-0.496587 -0.67413 0.0250338 0.0025 0.546033 0.428705 1.96282 0.00915695 37 4 1 -6.94272e-09 
-0.492009 -0.674247 0.0278204 0.0025 0.545971 0.428635 1.96272 0.009158 38 4 1 -7.83997e-09 
-0.487429 -0.674379 0.0305263 0.0025 0.545902 0.428557 1.96261 0.00915916 39 4 1 -8.43313e-09 
-0.482849 -0.674529 0.0337973 0.0025 0.545826 0.428472 1.9625 0.00916043 40 4 1 -7.56969e-09 
-0.478269 -0.674693 0.0377929 0.0025 0.545743 0.428379 1.96237 0.00916182 41 4 1 -7.8483e-09 
-0.473688 -0.674868 0.0414017 0.0025 0.545652 0.428278 1.96223 0.00916334 42 4 1 -6.13324e-09 
-0.469106 -0.67505 0.0434183 0.0025 0.545557 0.428172 1.96209 0.00916495 43 4 1 3.22124e-11 
-0.464523 -0.675237 0.0436302 0.0025 0.545461 0.428066 1.96194 0.00916656 44 4 1 8.04356e-09 
-0.459939 -0.675418 0.0412144 0.0025 0.54537 0.427965 1.96181 0.00916808 45 4 1 1.63374e-08 
-0.455355 -0.675584 0.0350574 0.0025 0.545293 0.427879 1.96169 0.00916938 46 4 1 2.61346e-08 
-0.45077 -0.675713 0.0256606 0.0025 0.545237 0.427817 1.9616 0.00917032 47 4 1 2.55721e-08 
-0.446184 -0.675798 0.0252075 0.0025 0.545204 0.42778 1.96155 0.00917089 48 5 1 7.46494e-08 
-0.441599 -0.67582 -0.0282158 0.0025 0.545231 0.427813 1.96158 0.00917042 49 4 1 1.44705e-07 
-0.437014 -0.67551 -0.0838699 0.0025 0.545377 0.427973 1.96179 0.00916796 50 4 1 1.58723e-07 
-0.432431 -0.675102 -0.105465 0.0025 0.545658 0.428291 1.96218 0.00916325 51 4 1 4.86053e-07 
-0.427851 -0.674049 -0.397414 0.0025 0.546323 0.429042 1.96313 0.00915209 52 4 1 1.08689e-06 
-0.423279 -0.671301 -0.866301 0.0025 0.547786 0.430655 1.96523 0.00912765 53 4 1 1.33482e-06 
-0.418723 -0.666701 -1.22012 0.0025 0.550123 0.433219 1.96858 0.00908888 54 4 1 1.26152e-06 
-0.41419 -0.660947 -1.4511 0.0025 0.553141 0.436548 1.97289 0.00903928 55 4 1 1.40615e-06 
-0.409684 -0.654098 -1.75342 0.0025 0.556795 0.440598 1.97809 0.00897996 56 4 1 1.85705e-06 
-0.40521 -0.645821 -2.14829 0.0025 0.56122 0.445512 1.98436 0.00890917 57 4 1 2.34523e-06 
-0.400774 -0.635884 -2.57455 0.0025 0.566514 0.451407 1.99182 0.0088259 58 4 1 2.69655e-06 
-0.396384 -0.624421 -2.95729 0.0025 0.572648 0.458257 2.00042 0.00873136 59 4 1 2.78577e-06 
-0.392043 -0.611767 -3.21501 0.0025 0.579441 0.465872 2.00988 0.00862901 60 4 1 2.61149e-06 
-0.387754 -0.598572 -3.32552 0.0025 0.586617 0.473959 2.0198 0.00852344 61 4 1 2.38387e-06 
-0.383519 -0.585275 -3.3721 0.0025 0.593953 0.48227 2.02986 0.00841817 62 4 1 2.18062e-06 
-0.379336 -0.572102 -3.36487 0.0025 0.601309 0.490644 2.03988 0.0083152 63 4 1 1.93317e-06 
-0.375203 -0.559281 -3.29709 0.0025 0.608563 0.498946 2.04968 0.00821608 64 4 1 1.73964e-06 
-0.371119 -0.546869 -3.23373 0.0025 0.615655 0.507104 2.0592 0.00812143 65 4 1 1.60477e-06 
-0.367082 -0.534838 -3.1617 0.0025 0.622575 0.515099 2.06842 0.00803116 66 4 1 1.49096e-06 
-0.363088 -0.523253 -3.09617 0.0025 0.629321 0.52293 2.07735 0.00794507 67 4 1 1.40581e-06 
-0.359136 -0.512032 -3.03173 0.0025 0.63591 0.530612 2.08602 0.00786275 68 4 1 1.40555e-06 
-0.355225 -0.501086 -3.0208 0.0025 0.642398 0.538209 2.09451 0.00778334 69 4 1 1.45836e-06 
-0.351353 -0.490273 -3.03002 0.0025 0.648859 0.545806 2.1029 0.00770583 70 4 1 1.55964e-06 
-0.347519 -0.479466 -3.10047 0.0025 0.655378 0.553502 2.11132 0.00762919 71 4 1 1.69986e-06 
-0.343723 -0.468445 -3.20208 0.0025 0.66204 0.561396 2.11988 0.00755241 72 4 1 1.79312e-06 
-0.339966 -0.457252 -3.30455 0.0025 0.668881 0.569534 2.12861 0.00747517 73 4 1 1.86517e-06 
-0.336248 -0.445813 -3.41728 0.0025 0.675911 0.577932 2.13753 0.00739742 74 4 1 1.91854e-06 
-0.332569 -0.434148 -3.52388 0.0025 0.683128 0.586586 2.14663 0.00731927 75 4 1 1.86535e-06 
-0.328928 -0.422414 -3.56171 0.0025 0.690467 0.595424 2.15582 0.00724148 76 4 1 1.81745e-06 
-0.325327 -0.410649 -3.61588 0.0025 0.697877 0.604388 2.16505 0.00716458 77 4 1 1.81387e-06 
-0.321764 -0.398899 -3.66111 0.0025 0.705354 0.613471 2.17429 0.00708864 78 4 1 1.74956e-06 
-0.318238 -0.387181 -3.67139 0.0025 0.712859 0.622626 2.18352 0.00701401 79 4 1 1.69634e-06 
-0.314749 -0.37559 -3.68972 0.0025 0.720365 0.631822 2.19268 0.00694093 80 4 1 1.65763e-06 
-0.311297 -0.364096 -3.69556 0.0025 0.727865 0.641049 2.20178 0.0068694 81 4 1 1.6058e-06 
-0.30788 -0.352731 -3.69626 0.0025 0.735345 0.65029 2.2108 0.00679953 82 4 1 1.57719e-06 
-0.304497 -0.341508 -3.7064 0.0025 0.742807 0.659547 2.21975 0.00673123 83 4 1 1.56687e-06 
-0.301148 -0.330325 -3.72732 0.0025 0.750265 0.668834 2.22863 0.00666432 84 4 1 1.50934e-06 
-0.297833 -0.319322 -3.71148 0.0025 0.7577 0.678132 2.23744 0.00659892 85 4 1 1.48295e-06 
-0.294549 -0.308387 -3.73386 0.0025 0.765113 0.687438 2.24617 0.00653498 86 4 1 1.4401e-06 
-0.291298 -0.297615 -3.71147 0.0025 0.7725 0.696747 2.25482 0.00647249 87 4 1 1.42373e-06 
-0.288077 -0.286941 -3.74171 0.0025 0.779868 0.706067 2.26339 0.00641134 88 4 1 1.40676e-06 
-0.284886 -0.276364 -3.73421 0.0025 0.787227 0.715412 2.27191 0.00635141 89 4 1 1.38464e-06 
-0.281725 -0.265875 -3.76199 0.0025 0.794576 0.724778 2.28037 0.00629267 90 4 1 1.33685e-06 
-0.278593 -0.255479 -3.73599 0.0025 0.801901 0.734149 2.28875 0.00623518 91 4 1 1.3083e-06 
-0.27549 -0.245247 -3.75882 0.0025 0.809199 0.74352 2.29706 0.00617895 92 4 1 1.29956e-06 
-0.272414 -0.235015 -3.75456 0.0025 0.816485 0.752906 2.30531 0.00612381 93 4 1 1.22221e-06 
-0.269366 -0.225031 -3.72174 0.0025 0.823722 0.762269 2.31346 0.00607001 94 4 1 1.29768e-06 
-0.266344 -0.215027 -3.81803 0.0025 0.83098 0.771686 2.32159 0.006017 95 4 1 1.23199e-06 
-0.263349 -0.205097 -3.74469 0.0025 0.838231 0.781127 2.32967 0.00596494 96 4 1 1.14867e-06 
-0.260379 -0.195381 -3.76179 0.0025 0.845423 0.79053 2.33765 0.0059142 97 4 1 1.24733e-06 
-0.257434 -0.185583 -3.83067 0.0025 0.852645 0.799996 2.34562 0.00586411 98 4 1 1.09081e-06 
-0.254515 -0.175979 -3.70412 0.0025 0.859806 0.809416 2.35347 0.00581527 99 4 1 1.06846e-06 
-0.251619 -0.166624 -3.76183 0.0025 0.866899 0.818787 2.36122 0.00576769 100 4 1 1.23145e-06 
-0.248747 -0.15705 -3.85565 0.0025 0.874067 0.828275 2.36901 0.00572039 101 4 1 1.03919e-06 
-0.245899 -0.147713 -3.70943 0.0025 0.881184 0.83773 2.37671 0.00567418 102 4 1 1.01373e-06 
-0.243073 -0.138608 -3.78116 0.0025 0.888235 0.847138 2.38429 0.00562914 103 4 1 1.22918e-06 
-0.240269 -0.129233 -3.92367 0.0025 0.895396 0.856707 2.39197 0.00558412 104 4 1 9.38556e-07 
-0.237489 -0.120071 -3.677 0.0025 0.902466 0.866185 2.3995 0.00554037 105 4 1 7.97812e-07 
-0.234729 -0.111413 -3.66574 0.0025 0.909348 0.875462 2.4068 0.00549844 106 4 1 1.19878e-06 
-0.23199 -0.102434 -3.94683 0.0025 0.916374 0.884944 2.41423 0.00545629 107 4 1 1.04458e-06 
-0.229273 -0.0933054 -3.7716 0.0025 0.923446 0.894501 2.42166 0.0054145 108 4 1 6.26858e-07 
-0.226575 -0.0849534 -3.53467 0.0025 0.930241 0.903746 2.42876 0.00537495 109 4 1 1.07474e-06 
-0.223898 -0.0763832 -3.94188 0.0025 0.937124 0.91313 2.43594 0.00533547 110 4 1 1.20576e-06 
-0.22124 -0.0673712 -3.92149 0.0025 0.944225 0.922811 2.44332 0.00529535 111 4 1 6.58546e-07 
-0.218602 -0.0588962 -3.63049 0.0025 0.951091 0.932215 2.4504 0.00525712 112 4 1 5.82298e-07 
-0.215983 -0.0508759 -3.55558 0.0025 0.957676 0.941269 2.45717 0.00522097 113 4 1 6.64772e-07 
-0.213381 -0.0430425 -3.46125 0.0025 0.964139 0.950182 2.46378 0.00518598 114 4 1 1.01955e-06 
-0.210797 -0.0351682 -3.85005 0.0025 0.970785 0.959389 2.47056 0.00515047 115 4 1 1.55524e-06 
-0.208231 -0.0261361 -4.40872 0.0025 0.977958 0.969293 2.47789 0.00511269 116 4 1 2.03721e-07 
-0.205684 -0.0176996 -3.11655 0.0025 0.984586 0.978435 2.48459 0.00507828 117 4 1 -1.13701e-06 
-0.203152 -0.0124489 -1.94678 0.0025 0.989666 0.985591 2.48963 0.00505221 118 4 1 1.46841e-06 
-0.200632 -0.00624082 -4.26817 0.0025 0.995455 0.993772 2.49545 0.00502283 119 4 1 3.45744e-06 
-0.198129 0.00470638 -5.72212 0.0025 1.00346 1.00483 2.50359 0.00498277 120 4 1 -1.15804e-06 
-0.195649 0.0130641 -1.89629 0.0025 1.00979 1.01356 2.5099 0.00495154 121 4 1 -4.07728e-06 
-0.193178 0.0139771 0.783294 0.0025 1.01188 1.01669 2.5118 0.00494129 122 4 1 1.25078e-06 
-0.190708 0.0159598 -3.47411 0.0025 1.01476 1.02089 2.51466 0.0049273 123 4 1 3.96392e-06 
-0.18825 0.0255451 -4.76071 0.0025 1.02093 1.02938 2.52094 0.0048975 124 4 1 -2.03085e-06 
-0.18581 0.0306656 -0.648928 0.0025 1.02505 1.03508 2.52499 0.00487782 125 3 1 -3.60126e-06 
-0.183373 0.030151 0.713115 0.0025 1.02503 1.03516 2.5249 0.0048779 126 4 1 -1.26939e-06 
-0.180932 0.0280904 1.15152 0.0025 1.02331 1.03279 2.52319 0.00488608 127 4 1 -3.49294e-07 
-0.178487 0.0254956 1.31334 0.0025 1.02109 1.02966 2.52099 0.00489671 128 4 1 -5.28778e-08 
-0.176035 0.0226967 1.37768 0.0025 1.0187 1.02628 2.51862 0.00490823 129 4 1 6.57226e-08 
-0.173578 0.0198306 1.39196 0.0025 1.01626 1.02285 2.5162 0.00492 130 4 1 1.31823e-07 
-0.171115 0.0169808 1.37082 0.0025 1.01385 1.01946 2.51381 0.00493168 131 4 1 1.82241e-07 
-0.168647 0.0142199 1.31545 0.0025 1.01154 1.01621 2.51151 0.00494295 132 4 1 2.25078e-07 
-0.166172 0.0116197 1.22585 0.0025 1.00938 1.01317 2.50936 0.00495352 133 4 1 2.584e-07 
-0.163693 0.00924821 1.10504 0.0025 1.00743 1.01043 2.50742 0.00496311 134 4 1 2.77506e-07 
-0.161209 0.00715978 0.960944 0.0025 1.00573 1.00804 2.50572 0.00497152 135 4 1 2.79525e-07 
-0.158722 0.00538728 0.804966 0.0025 1.00429 1.00603 2.50429 0.00497862 136 4 1 2.65014e-07 
-0.156231 0.0039383 0.649397 0.0025 1.00313 1.00439 2.50312 0.0049844 137 4 1 2.37576e-07 
-0.153737 0.00279704 0.504844 0.0025 1.00222 1.00311 2.50221 0.00498894 138 4 1 2.02367e-07 
-0.151242 0.00193015 0.378609 0.0025 1.00153 1.00214 2.50152 0.00499238 139 4 1 1.64548e-07 
-0.148745 0.00129434 0.274257 0.0025 1.00102 1.00144 2.50102 0.0049949 140 4 1 1.28235e-07 
-0.146247 0.000843528 0.192121 0.0025 1.00066 1.00093 2.50066 0.00499668 141 4 1 9.60933e-08 
-0.143748 0.000534178 0.130274 0.0025 1.00042 1.00059 2.50042 0.0049979 142 4 1 6.94114e-08 
-0.141249 0.000328584 0.0855608 0.0025 1.00026 1.00036 2.50026 0.00499871 143 4 1 4.84148e-08 
-0.138749 0.000196195 0.0544409 0.0025 1.00015 1.00022 2.50015 0.00499923 144 4 1 3.26449e-08 
-0.13625 0.000113597 0.0335523 0.0025 1.00009 1.00013 2.50009 0.00499955 145 4 1 2.12897e-08 
-0.13375 6.36877e-05 0.0200163 0.0025 1.00005 1.00007 2.50005 0.00499975 146 4 1 1.34291e-08 
-0.13125 3.45079e-05 0.0115455 0.0025 1.00003 1.00004 2.50003 0.00499986 147 4 1 8.18909e-09 
-0.12875 1.80238e-05 0.00642798 0.0025 1.00001 1.00002 2.50001 0.00499993 148 4 1 4.82296e-09 
-0.12625 9.04418e-06 0.00344622 0.0025 1.00001 1.00001 2.50001 0.00499996 149 4 1 2.73917e-09 
-0.12375 4.34026e-06 0.00177344 0.0025 1 1 2.5 0.00499998 150 4 1 1.49697e-09 
-0.12125 1.97954e-06 0.000872102 0.0025 1 1 2.5 0.00499999 151 4 1 7.84862e-10 
-0.11875 8.50375e-07 0.000407274 0.0025 1 1 2.5 0.005 152 4 1 3.93151e-10 
-0.11625 3.39423e-07 0.00017898 0.0025 1 1 2.5 0.005 153 4 1 1.87055e-10 
-0.11375 1.231e-07 7.29699e-05 0.0025 1 1 2.5 0.005 154 4 1 8.38113e-11 
-0.11125 3.8929e-08 2.69312e-05 0.0025 1 1 2.5 0.005 155 4 1 3.48975e-11 
-0.10875 9.78213e-09 8.58804e-06 0.0025 1 1 2.5 0.005 156 4 1 1.31713e-11 
-0.10625 1.40869e-09 2.07465e-06 0.0025 1 1 2.5 0.005 157 4 1 4.40298e-12 
-0.10375 -1.9592e-10 8.11488e-08 0.0025 1 1 2.5 0.005 158 5 1 1.14424e-12 
-0.10125 1.52976e-10 -2.28891e-07 0.0025 1 1 2.5 0.005 159 4 1 -4.73257e-15 
-0.09875 2.88566e-10 2.89668e-09 0.0025 1 1 2.5 0.005 160 3 1 -1.24047e-13 
-0.09625 2.21032e-10 4.64843e-08 0.0025 1 1 2.5 0.005 161 4 1 -1.30882e-14 
-0.09375 1.30012e-10 4.31183e-08 0.0025 1 1 2.5 0.005 162 4 1 1.64349e-14 
-0.09125 6.45441e-11 2.71217e-08 0.0025 1 1 2.5 0.005 163 4 1 1.7835e-14 
-0.08875 2.76596e-11 1.40947e-08 0.0025 1 1 2.5 0.005 164 4 1 1.20185e-14 
-0.08625 1.01039e-11 6.20867e-09 0.0025 1 1 2.5 0.005 165 4 1 6.47411e-15 
-0.08375 2.98552e-12 2.30693e-09 0.0025 1 1 2.5 0.005 166 4 1 2.93525e-15 
-0.08125 5.99939e-13 6.80814e-10 0.0025 1 1 2.5 0.005 167 4 1 1.11839e-15 
-0.07875 2.69664e-15 1.19201e-10 0.0025 1 1 2.5 0.005 168 4 1 3.52784e-16 
-0.07625 -1.76557e-14 -4.74074e-11 0.0025 1 1 2.5 0.005 169 5 1 5.22249e-17 
-0.07375 2.82054e-14 -1.11413e-11 0.0025 1 1 2.5 0.005 170 4 1 -1.77636e-17 
-0.07125 2.54387e-14 5.91172e-12 0.0025 1 1 2.5 0.005 171 3 1 -1.77636e-17 
-0.06875 1.75742e-14 4.43379e-12 0.0025 1 1 2.5 0.005 172 4 1 1.56319e-17 
-0.06625 4.0751e-15 6.65068e-12 0.0025 1 1 2.5 0.005 173 5 1 -1.3145e-17 
-0.06375 7.24946e-16 -4.54747e-13 0.0025 1 1 2.5 0.005 174 4 1 3.55271e-19 
-0.06125 -1.62429e-15 -1.13687e-13 0.0025 1 1 2.5 0.005 175 3 1 3.16192e-17 
-0.05875 3.03752e-15 -1.13687e-13 0.0025 1 1 2.5 0.005 176 4 1 -2.4869e-17 
-0.05625 1.37675e-15 -5.68434e-14 0.0025 1 1 2.5 0.005 177 5 1 1.42109e-18 
-0.05375 1.18642e-15 1.7053e-13 0.0025 1 1 2.5 0.005 178 4 1 7.10543e-19 
-0.05125 -2.66589e-16 1.38051e-27 0.0025 1 1 2.5 0.005 179 5 1 -1.42109e-18 
-0.04875 1.34666e-15 -5.68434e-14 0.0025 1 1 2.5 0.005 180 5 1 -3.90799e-18 
-0.04625 -4.40772e-16 -5.68434e-14 0.0025 1 1 2.5 0.005 181 5 1 3.19744e-18 
-0.04375 -1.4976e-15 -5.68434e-14 0.0025 1 1 2.5 0.005 182 5 1 -7.10543e-18 
-0.04125 -2.08011e-15 -1.13687e-13 0.0025 1 1 2.5 0.005 183 5 1 2.4869e-18 
-0.03875 -3.31318e-15 -1.13687e-13 0.0025 1 1 2.5 0.005 184 5 1 -4.9738e-18 
-0.03625 6.42013e-16 2.84217e-13 0.0025 1 1 2.5 0.005 185 4 1 -1.06581e-17 
-0.03375 -2.00555e-17 3.41061e-13 0.0025 1 1 2.5 0.005 186 4 1 -4.9738e-18 
-0.03125 1.21169e-15 5.68434e-14 0.0025 1 1 2.5 0.005 187 3 1 4.76064e-17 
-0.02875 -4.67323e-16 5.68434e-14 0.0025 1 1 2.5 0.005 188 4 1 -3.94351e-17 
-0.02625 -7.28927e-16 1.65661e-27 0.0025 1 1 2.5 0.005 189 5 1 9.59233e-18 
-0.02375 -1.03571e-15 -5.68434e-14 0.0025 1 1 2.5 0.005 190 3 1 -2.84217e-18 
-0.02125 -1.31011e-15 -1.13687e-13 0.0025 1 1 2.5 0.005 191 4 1 5.68434e-18 
-0.01875 2.27006e-17 5.68434e-14 0.0025 1 1 2.5 0.005 192 5 1 -8.17124e-18 
-0.01625 -2.26864e-15 -1.7053e-13 0.0025 1 1 2.5 0.005 193 4 1 3.19744e-18 
-0.01375 7.00039e-16 3.97904e-13 0.0025 1 1 2.5 0.005 194 3 1 2.13163e-18 
-0.01125 -1.2204e-15 5.68434e-14 0.0025 1 1 2.5 0.005 195 5 1 -1.77636e-18 
-0.00875 -1.43874e-15 -1.7053e-13 0.0025 1 1 2.5 0.005 196 4 1 1.2326e-33 
-0.00625 -3.59989e-16 1.13687e-13 0.0025 1 1 2.5 0.005 197 3 1 0 
-0.00375 -4.47352e-16 2.27374e-13 0.0025 1 1 2.5 0.005 198 4 1 3.55271e-19 
-0.00125 -9.95831e-16 -1.7053e-13 0.0025 1 1 2.5 0.005 199 5 1 3.55271e-19 
0.00125 -7.77116e-17 -8.87469e-29 0.0025 1 1 2.5 0.005 200 3 1 -1.42109e-18 
0.00375 8.71163e-16 1.13687e-13 0.0025 1 1 2.5 0.005 201 4 1 3.55271e-19 
0.00625 5.74716e-16 1.7053e-13 0.0025 1 1 2.5 0.005 202 4 1 3.77482e-33 
0.00875 5.8133e-16 -4.93038e-29 0.0025 1 1 2.5 0.005 203 4 1 1.2326e-33 
0.01125 1.88115e-15 5.11591e-13 0.0025 1 1 2.5 0.005 204 4 1 2.4869e-18 
0.01375 1.39264e-15 -6.25278e-13 0.0025 1 1 2.5 0.005 205 5 1 -3.90799e-18 
0.01625 2.72006e-15 1.13687e-13 0.0025 1 1 2.5 0.005 206 4 1 -1.06581e-18 
0.01875 1.81484e-15 1.25056e-12 0.0025 1 1 2.5 0.005 207 4 1 1.06581e-18 
0.02125 2.35942e-15 -1.59162e-12 0.0025 1 1 2.5 0.005 208 4 1 -3.55271e-19 
0.02375 2.89342e-15 -2.84217e-13 0.0025 1 1 2.5 0.005 209 3 1 1.1724e-17 
0.02625 1.98916e-15 7.95808e-13 0.0025 1 1 2.5 0.005 210 5 1 -1.84741e-17 
0.02875 2.78299e-15 1.13687e-13 0.0025 1 1 2.5 0.005 211 4 1 1.13687e-17 
0.03125 2.69676e-16 5.68434e-14 0.0025 1 1 2.5 0.005 212 3 1 7.81597e-18 
0.03375 4.44801e-15 5.68434e-14 0.0025 1 1 2.5 0.005 213 4 1 1.42109e-18 
0.03625 8.59092e-16 -1.13687e-13 0.0025 1 1 2.5 0.005 214 5 1 -1.88294e-17 
0.03875 3.00315e-15 0 0.0025 1 1 2.5 0.005 215 3 1 1.98952e-17 
0.04125 1.18791e-15 2.8399e-27 0.0025 1 1 2.5 0.005 216 4 1 -9.9476e-18 
0.04375 1.74846e-15 -1.13687e-13 0.0025 1 1 2.5 0.005 217 4 1 -9.23706e-18 
0.04625 2.35297e-15 -1.13687e-13 0.0025 1 1 2.5 0.005 218 3 1 1.49214e-17 
0.04875 1.86235e-15 -1.13687e-13 0.0025 1 1 2.5 0.005 219 4 1 -7.81597e-18 
0.05125 1.14594e-15 -1.7053e-13 0.0025 1 1 2.5 0.005 220 4 1 -7.4607e-18 
0.05375 3.21477e-15 -5.68434e-14 0.0025 1 1 2.5 0.005 221 3 1 1.35003e-17 
0.05625 2.03944e-15 -2.84217e-13 0.0025 1 1 2.5 0.005 222 5 1 1.7053e-17 
0.05875 1.89279e-15 2.27374e-13 0.0025 1 1 2.5 0.005 223 4 1 -9.59233e-17 
0.06125 6.13098e-16 1.13687e-13 0.0025 1 1 2.5 0.005 224 3 1 9.66338e-17 
0.06375 7.01882e-15 5.68434e-14 0.0025 1 1 2.5 0.005 225 4 1 -8.88178e-18 
0.06625 2.25967e-15 -1.02318e-12 0.0025 1 1 2.5 0.005 226 5 1 -2.55795e-17 
0.06875 -6.11058e-15 -1.08571e-11 0.0025 1 1 2.5 0.005 227 4 1 2.77112e-17 
