# Time [s]: 0.251256
# Columns: pos [m], vel [m/s], acc [m/s^2], mass [kg], dens [kg/m^3], pres [Pa], ene [J/kg], sml [m], id, neighbor, alpha, gradh, ...additional?
1.33311 -0.673126 0.000560969 0.0025 0.511031 0.432703 2.15247 0.00978415 0 4 1 -0.000134225 
1.33789 -0.673131 0.000628529 0.0025 0.536886 0.426165 1.95001 0.00931297 1 4 1 0.000179248 
1.34243 -0.673137 0.000717783 0.0025 0.548214 0.430833 1.96847 0.00912052 2 3 1 -1.90586e-05 
1.34701 -0.673142 0.000829014 0.0025 0.545948 0.429167 1.96461 0.00915839 3 5 1 3.48568e-06 
1.35158 -0.673148 0.000951995 0.0025 0.546344 0.42932 1.96454 0.00915174 4 4 1 -1.38998e-07 
1.35616 -0.673154 0.00107871 0.0025 0.546353 0.429289 1.96431 0.00915159 5 4 1 1.43383e-07 
1.36074 -0.67316 0.00120672 0.0025 0.546374 0.429285 1.96425 0.00915125 6 4 1 -3.8678e-09 
1.36531 -0.673166 0.00134043 0.0025 0.546384 0.429279 1.96418 0.00915107 7 4 1 7.85554e-09 
1.36989 -0.673173 0.00148761 0.0025 0.546396 0.429275 1.96412 0.00915088 8 4 1 4.34992e-09 
1.37446 -0.67318 0.0016513 0.0025 0.546405 0.429271 1.96407 0.00915073 9 4 1 5.0241e-09 
1.37904 -0.673187 0.00182262 0.0025 0.546412 0.429267 1.96402 0.0091506 10 4 1 -2.70654e-09 
1.38361 -0.673195 0.00198334 0.0025 0.546419 0.429262 1.96397 0.00915048 11 4 1 4.28394e-09 
1.38819 -0.673203 0.00212147 0.0025 0.546425 0.429256 1.96393 0.00915038 12 4 1 2.44713e-09 
1.39276 -0.673212 0.00224859 0.0025 0.546429 0.429251 1.96389 0.00915032 13 4 1 3.17558e-09 
1.39734 -0.673222 0.0023993 0.0025 0.546432 0.429245 1.96385 0.00915027 14 4 1 1.65614e-09 
1.40191 -0.673233 0.00260483 0.0025 0.546434 0.429238 1.96382 0.00915024 15 4 1 -2.17137e-09 
1.40649 -0.673244 0.00286127 0.0025 0.546435 0.429231 1.96378 0.00915022 16 3 1 4.20298e-09 
1.41106 -0.673257 0.00312766 0.0025 0.546434 0.429223 1.96374 0.00915023 17 4 1 7.55862e-10 
1.41564 -0.67327 0.00336581 0.0025 0.546433 0.429215 1.96371 0.00915026 18 4 1 -1.88115e-09 
1.42021 -0.673285 0.00358737 0.0025 0.54643 0.429205 1.96368 0.0091503 19 4 1 2.01028e-09 
1.42479 -0.673302 0.00385519 0.0025 0.546427 0.429196 1.96365 0.00915035 20 4 1 3.43957e-10 
1.42937 -0.67332 0.00422725 0.0025 0.546422 0.429185 1.96361 0.00915043 21 4 1 1.18936e-10 
1.43394 -0.67334 0.00469697 0.0025 0.546416 0.429173 1.96358 0.00915054 22 4 1 -2.41999e-10 
1.43852 -0.673362 0.00519814 0.0025 0.546409 0.42916 1.96355 0.00915066 23 4 1 -1.57065e-09 
1.44309 -0.673385 0.00567779 0.0025 0.5464 0.429146 1.96352 0.00915081 24 4 1 6.57722e-11 
1.44767 -0.673411 0.00616095 0.0025 0.546389 0.42913 1.96348 0.00915099 25 4 1 -7.59233e-10 
1.45224 -0.673441 0.00673542 0.0025 0.546377 0.429113 1.96345 0.00915119 26 4 1 -2.12967e-09 
1.45682 -0.673473 0.00747493 0.0025 0.546363 0.429095 1.96341 0.00915142 27 4 1 -9.76508e-10 
1.46139 -0.673509 0.00838525 0.0025 0.546347 0.429074 1.96337 0.00915169 28 4 1 -1.78836e-09 
1.46597 -0.673549 0.0094197 0.0025 0.546329 0.42905 1.96333 0.009152 29 4 1 -3.79536e-09 
1.47055 -0.673593 0.0105313 0.0025 0.546307 0.429024 1.96329 0.00915236 30 4 1 -2.81622e-09 
1.47512 -0.673642 0.0117107 0.0025 0.546283 0.428994 1.96324 0.00915276 31 4 1 -1.65056e-09 
1.4797 -0.673697 0.0130004 0.0025 0.546255 0.428961 1.96319 0.00915323 32 4 1 -4.89952e-09 
1.48427 -0.67376 0.0145045 0.0025 0.546224 0.428924 1.96313 0.00915375 33 4 1 -5.5656e-09 
1.48885 -0.673832 0.0163727 0.0025 0.546189 0.428883 1.96307 0.00915434 34 4 1 -3.64564e-09 
1.49343 -0.673912 0.0187077 0.0025 0.546148 0.428836 1.963 0.00915502 35 4 1 -7.13653e-09 
1.49801 -0.674001 0.0214125 0.0025 0.546102 0.428783 1.96293 0.0091558 36 4 1 -8.64068e-09 
-0.497415 -0.6741 0.0241679 0.0025 0.546049 0.428723 1.96284 0.00915669 37 4 1 -6.45248e-09 
-0.492836 -0.674213 0.0267521 0.0025 0.545989 0.428655 1.96275 0.0091577 38 4 1 -7.50902e-09 
-0.488257 -0.674342 0.0294823 0.0025 0.545922 0.42858 1.96264 0.00915881 39 4 1 -8.6237e-09 
-0.483678 -0.674488 0.0329652 0.0025 0.545849 0.428497 1.96253 0.00916005 40 4 1 -8.14493e-09 
-0.479097 -0.674647 0.0370524 0.0025 0.545767 0.428406 1.9624 0.00916141 41 4 1 -8.34097e-09 
-0.474516 -0.674817 0.0406058 0.0025 0.545678 0.428307 1.96227 0.00916291 42 4 1 -6.65158e-09 
-0.469934 -0.674997 0.0428151 0.0025 0.545584 0.428202 1.96213 0.0091645 43 4 1 -1.07351e-09 
-0.465352 -0.675183 0.043451 0.0025 0.545488 0.428095 1.96198 0.00916611 44 4 1 6.46676e-09 
-0.460768 -0.675367 0.0415044 0.0025 0.545396 0.427993 1.96184 0.00916765 45 4 1 1.37058e-08 
-0.456184 -0.675539 0.0369202 0.0025 0.545315 0.427904 1.96172 0.00916901 46 4 1 2.27931e-08 
-0.451599 -0.67568 0.0289558 0.0025 0.545254 0.427835 1.96163 0.00917004 47 4 1 2.62454e-08 
-0.447014 -0.67577 0.0210153 0.0025 0.545213 0.42779 1.96156 0.00917072 48 5 1 4.96961e-08 
-0.442428 -0.675836 0.000862952 0.0025 0.545215 0.427794 1.96156 0.0091707 49 4 1 1.36613e-07 
-0.437843 -0.675613 -0.0828407 0.0025 0.545328 0.427918 1.96172 0.00916879 50 4 1 1.45149e-07 
-0.43326 -0.675216 -0.0829095 0.0025 0.545564 0.428183 1.96205 0.00916483 51 4 1 3.44827e-07 
-0.428678 -0.674467 -0.286223 0.0025 0.546077 0.428767 1.96278 0.00915621 52 4 1 9.19099e-07 
-0.424103 -0.672281 -0.72784 0.0025 0.547283 0.430101 1.96451 0.00913605 53 4 1 1.31305e-06 
-0.419542 -0.668151 -1.14005 0.0025 0.549381 0.432405 1.96752 0.00910115 54 4 1 1.28483e-06 
-0.415002 -0.662686 -1.38332 0.0025 0.55222 0.435529 1.97157 0.00905437 55 4 1 1.31913e-06 
-0.410488 -0.656188 -1.65336 0.0025 0.555677 0.439356 1.9765 0.00899803 56 4 1 1.69418e-06 
-0.406004 -0.648378 -2.01852 0.0025 0.559852 0.443991 1.98242 0.00893093 57 4 1 2.19219e-06 
-0.401557 -0.638964 -2.44284 0.0025 0.564871 0.449575 1.98951 0.00885158 58 4 1 2.58954e-06 
-0.397152 -0.627978 -2.83735 0.0025 0.570744 0.456127 1.99776 0.0087605 59 4 1 2.76511e-06 
-0.392796 -0.615669 -3.14151 0.0025 0.577336 0.463509 2.00696 0.00866046 60 4 1 2.66163e-06 
-0.388492 -0.602632 -3.28836 0.0025 0.584396 0.47145 2.01674 0.00855584 61 4 1 2.4316e-06 
-0.38424 -0.589401 -3.34975 0.0025 0.591672 0.47968 2.02674 0.00845063 62 4 1 2.23086e-06 
-0.380041 -0.576231 -3.36175 0.0025 0.599006 0.488018 2.03675 0.00834716 63 4 1 1.98759e-06 
-0.375892 -0.563332 -3.30356 0.0025 0.60627 0.496317 2.04659 0.00824715 64 4 1 1.77056e-06 
-0.371793 -0.550841 -3.23665 0.0025 0.613382 0.504485 2.05615 0.00815153 65 4 1 1.63903e-06 
-0.367741 -0.538728 -3.17582 0.0025 0.620328 0.512499 2.06543 0.00806025 66 4 1 1.51663e-06 
-0.363733 -0.527059 -3.10345 0.0025 0.627104 0.520352 2.07442 0.00797316 67 4 1 1.41163e-06 
-0.359767 -0.515756 -3.03668 0.0025 0.633712 0.528046 2.08314 0.00789002 68 4 1 1.39003e-06 
-0.355842 -0.504788 -3.00996 0.0025 0.6402 0.535632 2.09164 0.00781006 69 4 1 1.42503e-06 
-0.351957 -0.49398 -3.01026 0.0025 0.646636 0.543188 2.10002 0.00773232 70 4 1 1.49743e-06 
-0.34811 -0.483242 -3.05207 0.0025 0.653094 0.550802 2.10838 0.00765586 71 4 1 1.64346e-06 
-0.344301 -0.472348 -3.15719 0.0025 0.659671 0.558585 2.11684 0.00757954 72 4 1 1.74926e-06 
-0.34053 -0.461275 -3.24889 0.0025 0.666418 0.5666 2.12547 0.0075028 73 4 1 1.81596e-06 
-0.336798 -0.449973 -3.3593 0.0025 0.673345 0.574862 2.13428 0.00742562 74 4 1 1.89944e-06 
-0.333104 -0.438447 -3.47907 0.0025 0.680468 0.583391 2.14328 0.00734789 75 4 1 1.86621e-06 
-0.32945 -0.426765 -3.52693 0.0025 0.687733 0.592127 2.15241 0.00727026 76 4 1 1.81407e-06 
-0.325834 -0.415067 -3.58269 0.0025 0.695084 0.601004 2.16158 0.00719338 77 4 1 1.80154e-06 
-0.322256 -0.403372 -3.62554 0.0025 0.702504 0.610003 2.17077 0.0071174 78 4 1 1.75824e-06 
-0.318716 -0.391678 -3.65369 0.0025 0.709965 0.61909 2.17997 0.0070426 79 4 1 1.70189e-06 
-0.315213 -0.380104 -3.66457 0.0025 0.717438 0.628231 2.18911 0.00696925 80 4 1 1.65423e-06 
-0.311747 -0.368621 -3.67608 0.0025 0.724905 0.637402 2.1982 0.00689746 81 4 1 1.61432e-06 
-0.308316 -0.357259 -3.68093 0.0025 0.732359 0.646596 2.20721 0.00682725 82 4 1 1.56071e-06 
-0.304919 -0.346037 -3.67401 0.0025 0.739786 0.655795 2.21613 0.00675871 83 4 1 1.56783e-06 
-0.301557 -0.334893 -3.71401 0.0025 0.747211 0.665027 2.225 0.00669155 84 4 1 1.51415e-06 
-0.298228 -0.323862 -3.68767 0.0025 0.754621 0.674276 2.2338 0.00662585 85 4 1 1.47993e-06 
-0.294931 -0.312962 -3.7173 0.0025 0.762006 0.683533 2.24252 0.00656163 86 4 1 1.44741e-06 
-0.291666 -0.302161 -3.69588 0.0025 0.769371 0.692799 2.25116 0.00649881 87 4 1 1.41214e-06 
-0.288432 -0.291518 -3.71499 0.0025 0.776709 0.702067 2.25972 0.00643741 88 4 1 1.40241e-06 
-0.285228 -0.280935 -3.71519 0.0025 0.784036 0.711356 2.26822 0.00637725 89 4 1 1.37807e-06 
-0.282054 -0.270477 -3.73316 0.0025 0.791352 0.720665 2.27666 0.0063183 90 4 1 1.35481e-06 
-0.27891 -0.260064 -3.73483 0.0025 0.798657 0.729994 2.28505 0.00626051 91 4 1 1.28982e-06 
-0.275794 -0.249834 -3.71417 0.0025 0.805925 0.739311 2.29334 0.00620405 92 4 1 1.31156e-06 
-0.272706 -0.239631 -3.7628 0.0025 0.813186 0.748651 2.30158 0.00614866 93 4 1 1.23519e-06 
-0.269645 -0.22958 -3.6951 0.0025 0.820411 0.75798 2.30974 0.00609451 94 4 1 1.24451e-06 
-0.266611 -0.219687 -3.769 0.0025 0.827617 0.76732 2.31783 0.00604144 95 4 1 1.27584e-06 
-0.263603 -0.209707 -3.76646 0.0025 0.834849 0.776719 2.32591 0.00598911 96 4 1 1.13849e-06 
-0.260622 -0.199963 -3.70878 0.0025 0.84202 0.786078 2.33388 0.0059381 97 4 1 1.20915e-06 
-0.257665 -0.190275 -3.80524 0.0025 0.849192 0.795468 2.34181 0.00588795 98 4 1 1.18183e-06 
-0.254734 -0.180554 -3.753 0.0025 0.856368 0.804888 2.34971 0.00583861 99 4 1 1.00795e-06 
-0.251826 -0.171182 -3.67209 0.0025 0.863436 0.814209 2.35744 0.00579082 100 4 1 1.17614e-06 
-0.248943 -0.161778 -3.83471 0.0025 0.870532 0.823594 2.36517 0.00574361 101 4 1 1.16005e-06 
-0.246083 -0.152299 -3.76678 0.0025 0.87767 0.833055 2.37291 0.0056969 102 4 1 9.40825e-07 
-0.243246 -0.143181 -3.6797 0.0025 0.884692 0.842408 2.38048 0.00565168 103 4 1 1.14108e-06 
-0.240431 -0.134028 -3.86979 0.0025 0.891757 0.851844 2.38807 0.00560691 104 4 1 1.13976e-06 
-0.237639 -0.124671 -3.81703 0.0025 0.898883 0.861375 2.39569 0.00556246 105 4 1 7.76176e-07 
-0.234868 -0.115853 -3.58677 0.0025 0.905806 0.870681 2.40305 0.00551995 106 4 1 9.53103e-07 
-0.232119 -0.107184 -3.77852 0.0025 0.912679 0.879958 2.41032 0.00547838 107 4 1 1.24881e-06 
-0.22939 -0.0980526 -3.94302 0.0025 0.919751 0.889504 2.41779 0.00543625 108 4 1 7.67422e-07 
-0.226682 -0.089285 -3.55701 0.0025 0.926667 0.898876 2.42504 0.00539568 109 4 1 7.4115e-07 
-0.223994 -0.0810689 -3.6844 0.0025 0.933403 0.908057 2.43206 0.00535674 110 4 1 1.24465e-06 
-0.221326 -0.0722361 -3.98157 0.0025 0.940383 0.917571 2.43933 0.00531698 111 4 1 9.57909e-07 
-0.218677 -0.063433 -3.76952 0.0025 0.94739 0.92714 2.44659 0.00527766 112 4 1 5.7072e-07 
-0.216048 -0.0552536 -3.57542 0.0025 0.954093 0.936341 2.45349 0.00524058 113 4 1 6.26318e-07 
-0.213437 -0.0473144 -3.51061 0.0025 0.960591 0.945282 2.46016 0.00520513 114 4 1 6.86681e-07 
-0.210843 -0.0396312 -3.46099 0.0025 0.967016 0.954165 2.46671 0.00517054 115 4 1 1.29727e-06 
-0.208266 -0.031442 -4.15622 0.0025 0.973827 0.9636 2.47366 0.00513438 116 4 1 1.34608e-06 
-0.205708 -0.022215 -4.1664 0.0025 0.980991 0.973472 2.48097 0.00509688 117 4 1 -6.3177e-07 
-0.203169 -0.0149823 -2.36018 0.0025 0.98697 0.981762 2.48697 0.00506601 118 4 1 -6.43529e-07 
-0.200642 -0.0102837 -2.40602 0.0025 0.991856 0.9887 2.49181 0.00504105 119 4 1 2.80947e-06 
-0.198128 -0.00226151 -5.32824 0.0025 0.998541 0.998066 2.49859 0.00500731 120 4 1 2.34628e-06 
-0.195635 0.00894034 -4.72894 0.0025 1.0065 1.00902 2.50666 0.00496769 121 4 1 -3.10731e-06 
-0.19316 0.0143298 -0.568335 0.0025 1.01113 1.01548 2.51117 0.00494494 122 4 1 -2.76455e-06 
-0.19069 0.0139808 0.144608 0.0025 1.01271 1.01794 2.51258 0.00493727 123 4 1 3.30711e-06 
-0.188223 0.0193207 -4.92368 0.0025 1.01697 1.02396 2.51693 0.00491656 124 4 1 2.08e-06 
-0.185773 0.0284486 -3.15452 0.0025 1.02298 1.0322 2.52298 0.00488767 125 4 1 -3.49469e-06 
-0.183335 0.030678 0.147313 0.0025 1.02533 1.03551 2.52523 0.00487647 126 3 1 -2.67128e-06 
-0.180897 0.0293774 0.92312 0.0025 1.0244 1.0343 2.52427 0.00488091 127 4 1 -7.68948e-07 
-0.178454 0.0270588 1.2275 0.0025 1.02243 1.03155 2.52232 0.00489029 128 4 1 -2.01345e-07 
-0.176006 0.0243684 1.34323 0.0025 1.02013 1.0283 2.52004 0.00490134 129 4 1 2.31527e-09 
-0.173553 0.0215366 1.38556 0.0025 1.01771 1.02489 2.51764 0.00491299 130 4 1 9.46077e-08 
-0.171093 0.0186733 1.3851 0.0025 1.01528 1.02147 2.51523 0.00492475 131 4 1 1.53339e-07 
-0.168628 0.0158567 1.34961 0.0025 1.01291 1.01813 2.51287 0.00493627 132 4 1 2.00363e-07 
-0.166157 0.0131588 1.28 0.0025 1.01066 1.01497 2.51063 0.00494726 133 4 1 2.39221e-07 
-0.163681 0.0106499 1.17733 0.0025 1.00859 1.01205 2.50857 0.00495744 134 4 1 2.66609e-07 
-0.1612 0.00839263 1.0467 0.0025 1.00673 1.00945 2.50672 0.00496655 135 4 1 2.7859e-07 
-0.158714 0.00643245 0.897456 0.0025 1.00514 1.00722 2.50513 0.00497443 136 4 1 2.73696e-07 
-0.156225 0.00479187 0.741398 0.0025 1.00382 1.00536 2.50381 0.00498099 137 4 1 2.53762e-07 
-0.153733 0.00346879 0.59016 0.0025 1.00275 1.00387 2.50275 0.00498627 138 4 1 2.2305e-07 
-0.151239 0.00244007 0.453002 0.0025 1.00193 1.00271 2.50193 0.00499036 139 4 1 1.86728e-07 
-0.148743 0.00166814 0.335687 0.0025 1.00132 1.00185 2.50131 0.00499342 140 4 1 1.49521e-07 
-0.146246 0.00110845 0.240435 0.0025 1.00087 1.00123 2.50087 0.00499563 141 4 1 1.14935e-07 
-0.143747 0.000715906 0.166634 0.0025 1.00056 1.00079 2.50056 0.00499718 142 4 1 8.50573e-08 
-0.141248 0.000449323 0.111838 0.0025 1.00035 1.0005 2.50035 0.00499823 143 4 1 6.07318e-08 
-0.138749 0.000273919 0.0727241 0.0025 1.00022 1.0003 2.50021 0.00499892 144 4 1 4.18994e-08 
-0.136249 0.000162072 0.0458214 0.0025 1.00013 1.00018 2.50013 0.00499936 145 4 1 2.79554e-08 
-0.13375 9.29653e-05 0.0279647 0.0025 1.00007 1.0001 2.50007 0.00499963 146 4 1 1.80443e-08 
-0.13125 5.16157e-05 0.0165179 0.0025 1.00004 1.00006 2.50004 0.0049998 147 4 1 1.12658e-08 
-0.12875 2.76811e-05 0.00943068 0.0025 1.00002 1.00003 2.50002 0.00499989 148 4 1 6.79927e-09 
-0.12625 1.42998e-05 0.00519473 0.0025 1.00001 1.00002 2.50001 0.00499994 149 4 1 3.96229e-09 
-0.12375 7.08986e-06 0.00275357 0.0025 1.00001 1.00001 2.50001 0.00499997 150 4 1 2.22579e-09 
-0.12125 3.35707e-06 0.00139964 0.0025 1 1 2.5 0.00499999 151 4 1 1.20239e-09 
-0.11875 1.50771e-06 0.000678927 0.0025 1 1 2.5 0.00499999 152 4 1 6.22602e-10 
-0.11625 6.35883e-07 0.000312123 0.0025 1 1 2.5 0.005 153 4 1 3.07618e-10 
-0.11375 2.48e-07 0.000134616 0.0025 1 1 2.5 0.005 154 4 1 1.44093e-10 
-0.11125 8.71556e-08 5.35888e-05 0.0025 1 1 2.5 0.005 155 4 1 6.33813e-11 
-0.10875 2.62573e-08 1.91305e-05 0.0025 1 1 2.5 0.005 156 4 1 2.5787e-11 
-0.10625 6.00336e-09 5.77476e-06 0.0025 1 1 2.5 0.005 157 4 1 9.4213e-12 
-0.10375 5.88103e-10 1.25966e-06 0.0025 1 1 2.5 0.005 158 4 1 3.03222e-12 
-0.10125 -1.61643e-10 -1.68134e-07 0.0025 1 1 2.5 0.005 159 5 1 6.70536e-13 
-0.09875 2.18646e-10 -1.33852e-07 0.0025 1 1 2.5 0.005 160 4 1 -1.11975e-13 
-0.09625 2.64403e-10 1.88138e-08 0.0025 1 1 2.5 0.005 161 3 1 -7.91999e-14 
-0.09375 1.85584e-10 4.64983e-08 0.0025 1 1 2.5 0.005 162 4 1 -4.59366e-16 
-0.09125 1.03944e-10 3.68033e-08 0.0025 1 1 2.5 0.005 163 4 1 1.72324e-14 
-0.08875 4.96582e-11 2.20193e-08 0.0025 1 1 2.5 0.005 164 4 1 1.56735e-14 
-0.08625 2.04782e-11 1.09245e-08 0.0025 1 1 2.5 0.005 165 4 1 9.84137e-15 
-0.08375 7.14924e-12 4.62876e-09 0.0025 1 1 2.5 0.005 166 4 1 5.06404e-15 
-0.08125 1.96801e-12 1.62919e-09 0.0025 1 1 2.5 0.005 167 4 1 2.19025e-15 
-0.07875 3.27871e-13 4.43265e-10 0.0025 1 1 2.5 0.005 168 4 1 8.09663e-16 
-0.07625 -3.06347e-14 4.38831e-11 0.0025 1 1 2.5 0.005 169 4 1 2.30216e-16 
-0.07375 -1.12116e-15 -3.71188e-11 0.0025 1 1 2.5 0.005 170 5 1 1.74083e-17 
-0.07125 2.99222e-14 -6.25278e-13 0.0025 1 1 2.5 0.005 171 3 1 -2.66454e-17 
-0.06875 2.05051e-14 4.54747e-13 0.0025 1 1 2.5 0.005 172 3 1 1.27898e-17 
-0.06625 1.41937e-14 1.00613e-11 0.0025 1 1 2.5 0.005 173 4 1 -1.52767e-17 
-0.06375 1.75426e-15 1.64846e-12 0.0025 1 1 2.5 0.005 174 5 1 1.42109e-18 
-0.06125 -1.74641e-15 1.7053e-13 0.0025 1 1 2.5 0.005 175 3 1 3.33955e-17 
-0.05875 2.96774e-15 1.66647e-26 0.0025 1 1 2.5 0.005 176 4 1 -2.52243e-17 
-0.05625 1.37675e-15 5.68434e-14 0.0025 1 1 2.5 0.005 177 5 1 2.13163e-18 
-0.05375 1.22131e-15 -5.68434e-14 0.0025 1 1 2.5 0.005 178 4 1 3.55271e-19 
-0.05125 -2.31697e-16 1.38051e-27 0.0025 1 1 2.5 0.005 179 5 1 -1.42109e-18 
-0.04875 1.27688e-15 -5.68434e-14 0.0025 1 1 2.5 0.005 180 5 1 -3.90799e-18 
-0.04625 -5.10555e-16 -5.68434e-14 0.0025 1 1 2.5 0.005 181 5 1 3.19744e-18 
-0.04375 -1.63717e-15 -5.68434e-14 0.0025 1 1 2.5 0.005 182 5 1 -7.10543e-18 
-0.04125 -2.18479e-15 -2.27374e-13 0.0025 1 1 2.5 0.005 183 5 1 2.4869e-18 
-0.03875 -3.41785e-15 -1.85382e-27 0.0025 1 1 2.5 0.005 184 5 1 -4.9738e-18 
-0.03625 9.90928e-16 2.84217e-13 0.0025 1 1 2.5 0.005 185 4 1 -1.06581e-17 
-0.03375 3.98643e-16 3.41061e-13 0.0025 1 1 2.5 0.005 186 4 1 -4.9738e-18 
-0.03125 1.28147e-15 5.68434e-14 0.0025 1 1 2.5 0.005 187 3 1 4.76064e-17 
-0.02875 -3.9754e-16 5.68434e-14 0.0025 1 1 2.5 0.005 188 4 1 -3.94351e-17 
-0.02625 -7.28927e-16 1.65661e-27 0.0025 1 1 2.5 0.005 189 5 1 9.59233e-18 
-0.02375 -1.10549e-15 -5.68434e-14 0.0025 1 1 2.5 0.005 190 3 1 -2.84217e-18 
-0.02125 -1.44967e-15 -1.13687e-13 0.0025 1 1 2.5 0.005 191 4 1 5.68434e-18 
-0.01875 5.75913e-17 -5.68434e-14 0.0025 1 1 2.5 0.005 192 5 1 -8.17124e-18 
-0.01625 -2.42565e-15 -1.26218e-27 0.0025 1 1 2.5 0.005 193 4 1 3.19744e-18 
-0.01375 8.74491e-16 -3.97904e-13 0.0025 1 1 2.5 0.005 194 3 1 2.13163e-18 
-0.01125 -1.34252e-15 6.82121e-13 0.0025 1 1 2.5 0.005 195 4 1 -2.13163e-18 
-0.00875 -8.10691e-16 -5.68434e-14 0.0025 1 1 2.5 0.005 196 5 1 -1.06581e-18 
-0.00625 -8.13581e-16 -2.27374e-13 0.0025 1 1 2.5 0.005 197 3 1 -1.06581e-18 
-0.00375 -1.85667e-16 5.68434e-14 0.0025 1 1 2.5 0.005 198 3 1 -1.06581e-18 
-0.00125 -6.46912e-16 3.97904e-13 0.0025 1 1 2.5 0.005 199 4 1 3.77482e-33 
0.00125 -1.99832e-16 5.68434e-14 0.0025 1 1 2.5 0.005 200 4 1 7.10543e-19 
0.00375 5.9203e-16 -1.13687e-13 0.0025 1 1 2.5 0.005 201 5 1 -1.77636e-18 
0.00625 9.23629e-16 -1.7053e-13 0.0025 1 1 2.5 0.005 202 3 1 0 
0.00875 1.31406e-15 1.25056e-12 0.0025 1 1 2.5 0.005 203 4 1 1.97215e-32 
0.01125 1.02629e-15 -1.47793e-12 0.0025 1 1 2.5 0.005 204 4 1 2.4869e-18 
0.01375 1.88114e-15 1.53477e-12 0.0025 1 1 2.5 0.005 205 5 1 -4.26326e-18 
0.01625 2.33624e-15 -1.7053e-12 0.0025 1 1 2.5 0.005 206 4 1 -1.77636e-18 
0.01875 3.19306e-15 1.53477e-12 0.0025 1 1 2.5 0.005 207 4 1 1.06581e-18 
0.02125 7.54417e-16 -1.02318e-12 0.0025 1 1 2.5 0.005 208 4 1 -1.06581e-18 
0.02375 2.7713e-15 1.41995e-27 0.0025 1 1 2.5 0.005 209 3 1 1.24345e-17 
0.02625 2.93124e-15 1.36424e-12 0.0025 1 1 2.5 0.005 210 5 1 -1.77636e-17 
0.02875 2.22471e-15 -2.16005e-12 0.0025 1 1 2.5 0.005 211 4 1 9.59233e-18 
0.03125 7.58167e-16 1.42109e-12 0.0025 1 1 2.5 0.005 212 3 1 7.81597e-18 
0.03375 4.36078e-15 -2.27374e-13 0.0025 1 1 2.5 0.005 213 4 1 1.42109e-18 
0.03625 8.24202e-16 -1.41995e-27 0.0025 1 1 2.5 0.005 214 5 1 -1.88294e-17 
0.03875 3.00315e-15 0 0.0025 1 1 2.5 0.005 215 3 1 1.98952e-17 
0.04125 1.18791e-15 2.8399e-27 0.0025 1 1 2.5 0.005 216 4 1 -9.9476e-18 
0.04375 1.6089e-15 -1.13687e-13 0.0025 1 1 2.5 0.005 217 4 1 -9.23706e-18 
0.04625 2.21341e-15 -1.13687e-13 0.0025 1 1 2.5 0.005 218 3 1 1.49214e-17 
0.04875 1.72278e-15 -1.13687e-13 0.0025 1 1 2.5 0.005 219 4 1 -7.81597e-18 
0.05125 9.36587e-16 -1.7053e-13 0.0025 1 1 2.5 0.005 220 4 1 -7.4607e-18 
0.05375 3.09265e-15 -1.13687e-13 0.0025 1 1 2.5 0.005 221 3 1 1.35003e-17 
0.05625 1.7952e-15 -1.7053e-13 0.0025 1 1 2.5 0.005 222 5 1 1.7053e-17 
0.05875 2.18937e-15 3.97904e-13 0.0025 1 1 2.5 0.005 223 4 1 -9.76996e-17 
0.06125 9.79461e-16 2.84217e-13 0.0025 1 1 2.5 0.005 224 3 1 1.00187e-16 
0.06375 6.46055e-15 -5.11591e-13 0.0025 1 1 2.5 0.005 225 4 1 -6.03961e-18 
0.06625 -1.70057e-15 -7.78755e-12 0.0025 1 1 2.5 0.005 226 5 1 -2.62901e-17 
0.06875 -1.86366e-14 -5.85487e-12 0.0025 1 1 2.5 0.005 227 4 1 2.02505e-17 
