# Time [s]: 0.256169
# Columns: pos [m], vel [m/s], acc [m/s^2], mass [kg], dens [kg/m^3], pres [Pa], ene [J/kg], sml [m], id, neighbor, alpha, gradh, ...additional?
1.3298 -0.673123 0.000510341 0.0025 0.511033 0.432706 2.15247 0.0097841 0 4 1 -0.000134225 
1.33458 -0.673128 0.000594109 0.0025 0.536889 0.426168 1.95001 0.00931292 1 4 1 0.000179249 
1.33912 -0.673133 0.000690836 0.0025 0.548217 0.430837 1.96847 0.00912047 2 3 1 -1.90587e-05 
1.3437 -0.673138 0.00079951 0.0025 0.545951 0.429171 1.96461 0.00915833 3 5 1 3.48567e-06 
1.34828 -0.673143 0.000912392 0.0025 0.546347 0.429324 1.96455 0.00915169 4 4 1 -1.38977e-07 
1.35285 -0.673149 0.00102782 0.0025 0.546356 0.429292 1.96431 0.00915154 5 4 1 1.43409e-07 
1.35743 -0.673154 0.00114945 0.0025 0.546377 0.429289 1.96425 0.00915119 6 4 1 -3.84989e-09 
1.36201 -0.67316 0.00128235 0.0025 0.546388 0.429283 1.96418 0.00915101 7 4 1 7.86613e-09 
1.36658 -0.673166 0.00142611 0.0025 0.546399 0.429279 1.96413 0.00915082 8 4 1 4.37247e-09 
1.37116 -0.673172 0.00157086 0.0025 0.546409 0.429275 1.96408 0.00915066 9 4 1 5.08456e-09 
1.37573 -0.673178 0.00170208 0.0025 0.546417 0.429271 1.96403 0.00915053 10 4 1 -2.602e-09 
1.38031 -0.673185 0.00181411 0.0025 0.546424 0.429267 1.96398 0.00915041 11 4 1 4.40047e-09 
1.38488 -0.673193 0.00192114 0.0025 0.54643 0.429262 1.96394 0.0091503 12 4 1 2.52112e-09 
1.38946 -0.673201 0.00205169 0.0025 0.546435 0.429257 1.9639 0.00915023 13 4 1 3.17957e-09 
1.39403 -0.673211 0.00222564 0.0025 0.546438 0.429251 1.96386 0.00915017 14 4 1 1.62933e-09 
1.39861 -0.67322 0.00243321 0.0025 0.54644 0.429245 1.96382 0.00915013 15 4 1 -2.14433e-09 
1.40318 -0.673231 0.00264093 0.0025 0.546442 0.429238 1.96379 0.00915011 16 4 1 4.33466e-09 
1.40776 -0.673242 0.0028256 0.0025 0.546442 0.429231 1.96376 0.00915011 17 3 1 9.45626e-10 
1.41233 -0.673255 0.00300505 0.0025 0.546441 0.429224 1.96372 0.00915012 18 4 1 -1.74595e-09 
1.41691 -0.673269 0.00322955 0.0025 0.546439 0.429215 1.96369 0.00915015 19 4 1 2.0265e-09 
1.42148 -0.673284 0.00353558 0.0025 0.546437 0.429206 1.96366 0.00915019 20 4 1 3.07519e-10 
1.42606 -0.6733 0.00390771 0.0025 0.546433 0.429197 1.96363 0.00915026 21 4 1 1.76668e-10 
1.43063 -0.673318 0.00429321 0.0025 0.546428 0.429186 1.9636 0.00915034 22 4 1 -1.05809e-11 
1.43521 -0.673337 0.00465958 0.0025 0.546421 0.429174 1.96357 0.00915045 23 4 1 -1.24253e-09 
1.43978 -0.673359 0.00503498 0.0025 0.546413 0.429161 1.96354 0.00915058 24 4 1 3.32733e-10 
1.44436 -0.673383 0.0054879 0.0025 0.546405 0.429148 1.96351 0.00915073 25 4 1 -6.2881e-10 
1.44893 -0.673409 0.00606868 0.0025 0.546394 0.429132 1.96347 0.0091509 26 4 1 -2.05387e-09 
1.45351 -0.673438 0.00677395 0.0025 0.546382 0.429115 1.96344 0.00915111 27 4 1 -7.97893e-10 
1.45808 -0.67347 0.00756193 0.0025 0.546368 0.429097 1.9634 0.00915134 28 4 1 -1.4068e-09 
1.46266 -0.673505 0.00839368 0.0025 0.546352 0.429075 1.96337 0.00915162 29 4 1 -3.22437e-09 
1.46724 -0.673544 0.00926554 0.0025 0.546333 0.429052 1.96333 0.00915192 30 4 1 -2.15529e-09 
1.47181 -0.673588 0.0102252 0.0025 0.546312 0.429026 1.96328 0.00915228 31 4 1 -1.03872e-09 
1.47639 -0.673638 0.0113729 0.0025 0.546288 0.428997 1.96324 0.00915268 32 4 1 -4.45816e-09 
1.48097 -0.673693 0.0128269 0.0025 0.546261 0.428965 1.96319 0.00915313 33 4 1 -5.27844e-09 
1.48554 -0.673756 0.0146304 0.0025 0.54623 0.428928 1.96313 0.00915365 34 4 1 -3.22832e-09 
1.49012 -0.673825 0.0166613 0.0025 0.546195 0.428887 1.96307 0.00915425 35 4 1 -6.14405e-09 
1.4947 -0.673902 0.0186972 0.0025 0.546154 0.42884 1.963 0.00915493 36 4 1 -6.98276e-09 
1.49927 -0.67399 0.0207021 0.0025 0.546108 0.428787 1.96293 0.0091557 37 4 1 -4.88403e-09 
-0.496148 -0.674091 0.0230352 0.0025 0.546056 0.428729 1.96284 0.00915657 38 4 1 -7.13304e-09 
-0.49157 -0.674206 0.0261253 0.0025 0.545998 0.428663 1.96275 0.00915754 39 4 1 -9.46754e-09 
-0.486991 -0.674333 0.0298432 0.0025 0.545932 0.428589 1.96265 0.00915864 40 4 1 -8.95033e-09 
-0.482411 -0.674473 0.0335494 0.0025 0.545859 0.428506 1.96254 0.00915988 41 4 1 -8.63865e-09 
-0.477831 -0.674627 0.0368257 0.0025 0.545777 0.428415 1.96241 0.00916126 42 4 1 -7.81918e-09 
-0.47325 -0.674795 0.0395251 0.0025 0.545688 0.428316 1.96228 0.00916274 43 4 1 -4.25934e-09 
-0.468668 -0.674975 0.0412883 0.0025 0.545596 0.428214 1.96214 0.00916429 44 4 1 8.0063e-10 
-0.464085 -0.675162 0.0419604 0.0025 0.545503 0.42811 1.962 0.00916585 45 4 1 4.36552e-09 
-0.459502 -0.675346 0.0411326 0.0025 0.545413 0.428011 1.96186 0.00916736 46 4 1 1.05888e-08 
-0.454918 -0.675514 0.0376205 0.0025 0.545333 0.427922 1.96174 0.00916871 47 4 1 2.13505e-08 
-0.450333 -0.675652 0.0301454 0.0025 0.545269 0.427851 1.96164 0.00916978 48 4 1 2.74445e-08 
-0.445748 -0.675739 0.0179518 0.0025 0.545228 0.427805 1.96158 0.00917048 49 4 1 3.76256e-08 
-0.441163 -0.675817 0.013612 0.0025 0.545219 0.427798 1.96156 0.00917062 50 5 1 1.35159e-07 
-0.436578 -0.67563 -0.0846049 0.0025 0.545322 0.42791 1.9617 0.0091689 51 4 1 1.56699e-07 
-0.431994 -0.67523 -0.0877997 0.0025 0.545553 0.428168 1.96203 0.00916502 52 4 1 2.79078e-07 
-0.427413 -0.674551 -0.23738 0.0025 0.546012 0.42869 1.96268 0.00915731 53 4 1 8.11975e-07 
-0.422837 -0.672648 -0.653005 0.0025 0.547089 0.429887 1.96423 0.00913927 54 4 1 1.27765e-06 
-0.418273 -0.668811 -1.08657 0.0025 0.549052 0.432042 1.96704 0.00910661 55 4 1 1.29988e-06 
-0.41373 -0.663517 -1.35087 0.0025 0.551786 0.435049 1.97095 0.00906149 56 4 1 1.27655e-06 
-0.409212 -0.65719 -1.59855 0.0025 0.555135 0.438752 1.97572 0.00900683 57 4 1 1.56876e-06 
-0.404723 -0.649686 -1.93131 0.0025 0.559149 0.443207 1.98142 0.00894216 58 4 1 2.03022e-06 
-0.40027 -0.640669 -2.32865 0.0025 0.563952 0.448548 1.98821 0.00886601 59 4 1 2.43774e-06 
-0.395857 -0.630133 -2.71947 0.0025 0.569582 0.454826 1.99612 0.00877837 60 4 1 2.66936e-06 
-0.391491 -0.618263 -3.04347 0.0025 0.575947 0.461949 2.00502 0.00868135 61 4 1 2.62499e-06 
-0.387175 -0.605567 -3.21789 0.0025 0.582825 0.469677 2.01456 0.0085789 62 4 1 2.39363e-06 
-0.382912 -0.592581 -3.28053 0.0025 0.589952 0.477728 2.02438 0.00847527 63 4 1 2.18482e-06 
-0.3787 -0.579586 -3.3006 0.0025 0.597153 0.485906 2.03422 0.00837306 64 4 1 1.97922e-06 
-0.374538 -0.566798 -3.26404 0.0025 0.604315 0.494078 2.04394 0.00827383 65 4 1 1.76956e-06 
-0.370426 -0.554412 -3.20086 0.0025 0.61135 0.502145 2.05342 0.00817863 66 4 1 1.6199e-06 
-0.366359 -0.542385 -3.13937 0.0025 0.618226 0.510069 2.06263 0.00808766 67 4 1 1.50761e-06 
-0.362338 -0.530777 -3.07737 0.0025 0.624942 0.517841 2.07156 0.00800075 68 4 1 1.39968e-06 
-0.358358 -0.519536 -3.00792 0.0025 0.631495 0.52546 2.08021 0.00791772 69 4 1 1.34385e-06 
-0.35442 -0.508645 -2.96558 0.0025 0.637911 0.532951 2.08864 0.00783808 70 4 1 1.3672e-06 
-0.35052 -0.497952 -2.96169 0.0025 0.644255 0.540387 2.09692 0.0077609 71 4 1 1.41116e-06 
-0.346659 -0.487394 -2.97531 0.0025 0.650588 0.547842 2.10514 0.00768536 72 4 1 1.52876e-06 
-0.342835 -0.476759 -3.0619 0.0025 0.656997 0.555416 2.1134 0.00761038 73 4 1 1.65566e-06 
-0.339048 -0.465962 -3.15486 0.0025 0.663558 0.563196 2.12182 0.00753514 74 4 1 1.71147e-06 
-0.335299 -0.454956 -3.2431 0.0025 0.670279 0.5712 2.13039 0.00745958 75 4 1 1.80082e-06 
-0.331588 -0.443745 -3.36816 0.0025 0.677186 0.579456 2.13914 0.00738349 76 4 1 1.82347e-06 
-0.327916 -0.432324 -3.44064 0.0025 0.684261 0.587945 2.14805 0.00730715 77 4 1 1.77204e-06 
-0.324281 -0.420839 -3.49361 0.0025 0.691441 0.596598 2.15704 0.00723128 78 4 1 1.73938e-06 
-0.320684 -0.409371 -3.53413 0.0025 0.698691 0.605373 2.16605 0.00715624 79 4 1 1.71725e-06 
-0.317124 -0.397884 -3.57583 0.0025 0.705995 0.61425 2.17508 0.0070822 80 4 1 1.66934e-06 
-0.313602 -0.386469 -3.58842 0.0025 0.713325 0.623194 2.18408 0.00700942 81 4 1 1.60898e-06 
-0.310115 -0.375145 -3.59678 0.0025 0.720652 0.632173 2.19303 0.00693816 82 4 1 1.58587e-06 
-0.306663 -0.363931 -3.61604 0.0025 0.727975 0.641183 2.20191 0.00686837 83 4 1 1.52101e-06 
-0.303246 -0.352829 -3.59505 0.0025 0.735273 0.6502 2.21071 0.00680019 84 4 1 1.51014e-06 
-0.299863 -0.341874 -3.63004 0.0025 0.742557 0.659235 2.21944 0.00673349 85 4 1 1.49489e-06 
-0.296513 -0.33096 -3.6265 0.0025 0.749838 0.6683 2.22812 0.00666811 86 4 1 1.44384e-06 
-0.293195 -0.320216 -3.63442 0.0025 0.757098 0.677376 2.23673 0.00660417 87 4 1 1.42123e-06 
-0.289908 -0.309527 -3.63846 0.0025 0.764341 0.686464 2.24526 0.00654159 88 4 1 1.3734e-06 
-0.286653 -0.299006 -3.62904 0.0025 0.771554 0.695551 2.25371 0.00648043 89 4 1 1.35967e-06 
-0.283428 -0.288558 -3.64531 0.0025 0.778748 0.704647 2.26209 0.00642056 90 4 1 1.33071e-06 
-0.280232 -0.278226 -3.63623 0.0025 0.785924 0.713754 2.2704 0.00636194 91 4 1 1.34048e-06 
-0.277066 -0.267967 -3.68172 0.0025 0.793102 0.722896 2.27867 0.00630436 92 4 1 1.28547e-06 
-0.273928 -0.257793 -3.64387 0.0025 0.800263 0.732048 2.28688 0.00624795 93 4 1 1.24677e-06 
-0.270818 -0.247803 -3.66839 0.0025 0.807391 0.741194 2.295 0.00619279 94 4 1 1.25985e-06 
-0.267735 -0.237765 -3.67632 0.0025 0.814516 0.750365 2.30308 0.00613862 95 4 1 1.16332e-06 
-0.264679 -0.227978 -3.62449 0.0025 0.821589 0.759505 2.31106 0.00608577 96 4 1 1.21251e-06 
-0.261649 -0.218239 -3.70346 0.0025 0.828658 0.76867 2.31899 0.00603385 97 4 1 1.21658e-06 
-0.258645 -0.208454 -3.68533 0.0025 0.835746 0.777887 2.32691 0.00598268 98 4 1 1.08968e-06 
-0.255666 -0.198935 -3.63976 0.0025 0.842774 0.787062 2.33471 0.00593279 99 4 1 1.18367e-06 
-0.252712 -0.189429 -3.7464 0.0025 0.849818 0.796287 2.3425 0.00588361 100 4 1 1.12998e-06 
-0.249782 -0.179889 -3.67428 0.0025 0.856861 0.805535 2.35025 0.00583525 101 4 1 9.67168e-07 
-0.246877 -0.170726 -3.61134 0.0025 0.863794 0.814681 2.35783 0.00578842 102 4 1 1.12585e-06 
-0.243994 -0.161507 -3.74886 0.0025 0.870753 0.823886 2.36541 0.00574216 103 4 1 1.12681e-06 
-0.241134 -0.152182 -3.71458 0.0025 0.877758 0.833171 2.37301 0.00569633 104 4 1 8.96703e-07 
-0.238297 -0.14323 -3.5898 0.0025 0.884645 0.842343 2.38043 0.00565198 105 4 1 1.06757e-06 
-0.235482 -0.134286 -3.77721 0.0025 0.891551 0.851569 2.38785 0.0056082 106 4 1 1.15178e-06 
-0.232689 -0.125098 -3.78679 0.0025 0.898558 0.86094 2.39534 0.00556447 107 4 1 7.74334e-07 
-0.229918 -0.116325 -3.53452 0.0025 0.905388 0.870115 2.4026 0.00552249 108 4 1 8.26567e-07 
-0.227167 -0.10794 -3.63255 0.0025 0.912097 0.879172 2.4097 0.00548188 109 4 1 1.22874e-06 
-0.224436 -0.0990038 -3.90729 0.0025 0.919017 0.888514 2.41701 0.0054406 110 4 1 8.60046e-07 
-0.221726 -0.09027 -3.56995 0.0025 0.925879 0.897803 2.42421 0.00540027 111 4 1 6.1467e-07 
-0.219035 -0.0821797 -3.52854 0.0025 0.932486 0.906803 2.43111 0.00536201 112 4 1 1.10629e-06 
-0.216364 -0.0737152 -3.85584 0.0025 0.939251 0.916028 2.43815 0.00532339 113 4 1 1.04823e-06 
-0.213712 -0.0649899 -3.77178 0.0025 0.946147 0.925441 2.4453 0.00528459 114 4 1 6.26447e-07 
-0.211079 -0.0568177 -3.558 0.0025 0.952818 0.934589 2.45218 0.00524759 115 4 1 6.37208e-07 
-0.208464 -0.0488714 -3.53897 0.0025 0.959288 0.943486 2.45883 0.0052122 116 4 1 5.53188e-07 
-0.205867 -0.0412458 -3.29854 0.0025 0.965579 0.952164 2.46525 0.00517824 117 4 1 8.45563e-07 
-0.203286 -0.0337759 -3.65772 0.0025 0.971952 0.961006 2.47174 0.00514429 118 4 1 1.62989e-06 
-0.200723 -0.0250016 -4.40822 0.0025 0.978962 0.970696 2.4789 0.00510745 119 4 1 4.51541e-07 
-0.198178 -0.0163694 -3.29253 0.0025 0.985648 0.979911 2.48567 0.0050728 120 4 1 -1.33009e-06 
-0.19565 -0.0111259 -1.71712 0.0025 0.990628 0.986909 2.4906 0.0050473 121 4 1 8.53468e-07 
-0.193131 -0.0058393 -3.67171 0.0025 0.995839 0.994309 2.49581 0.00502089 122 4 1 3.59605e-06 
-0.190629 0.00441229 -5.76641 0.0025 1.00346 1.00487 2.50357 0.00498275 123 4 1 -2.93764e-07 
-0.188148 0.0135719 -2.54026 0.0025 1.0102 1.01415 2.51032 0.00494951 124 4 1 -4.14669e-06 
-0.185679 0.0152604 0.814826 0.0025 1.01265 1.01772 2.51258 0.00493755 125 4 1 2.05917e-07 
-0.183211 0.0160697 -2.5351 0.0025 1.01486 1.02103 2.51475 0.00492679 126 4 1 3.8294e-06 
-0.180752 0.0245167 -4.67147 0.0025 1.02031 1.02854 2.52031 0.00490046 127 4 1 -1.24816e-06 
-0.17831 0.0300279 -0.875202 0.0025 1.0245 1.03432 2.52445 0.00488041 128 4 1 -3.51443e-06 
-0.175872 0.02979 0.591547 0.0025 1.02474 1.03474 2.52461 0.0048793 129 3 1 -1.38192e-06 
-0.173431 0.02788 1.09625 0.0025 1.02314 1.03254 2.52302 0.00488691 130 4 1 -4.00213e-07 
-0.170985 0.0253627 1.28219 0.0025 1.02098 1.02951 2.52089 0.00489724 131 4 1 -8.17571e-08 
-0.168534 0.022605 1.36173 0.0025 1.01862 1.02618 2.51855 0.00490858 132 4 1 5.54586e-08 
-0.166076 0.0197675 1.37899 0.0025 1.01621 1.02278 2.51615 0.00492023 133 4 1 1.30099e-07 
-0.163613 0.0169469 1.35631 0.0025 1.01383 1.01943 2.51379 0.00493179 134 4 1 1.82563e-07 
-0.161145 0.0142197 1.29851 0.0025 1.01155 1.01622 2.51152 0.00494292 135 4 1 2.23331e-07 
-0.158671 0.0116557 1.20827 0.0025 1.00942 1.01323 2.5094 0.00495334 136 4 1 2.53192e-07 
-0.156191 0.00931753 1.08962 0.0025 1.0075 1.01052 2.50748 0.0049628 137 4 1 2.69539e-07 
-0.153708 0.0072545 0.95 0.0025 1.00581 1.00816 2.5058 0.00497111 138 4 1 2.70558e-07 
-0.15122 0.00549644 0.799601 0.0025 1.00439 1.00616 2.50438 0.00497816 139 4 1 2.5684e-07 
-0.14873 0.0040506 0.64939 0.0025 1.00322 1.00452 2.50322 0.00498394 140 4 1 2.3139e-07 
-0.146236 0.00290301 0.50903 0.0025 1.0023 1.00323 2.5023 0.00498851 141 4 1 1.98604e-07 
-0.143741 0.00202338 0.385411 0.0025 1.0016 1.00225 2.5016 0.00499201 142 4 1 1.63023e-07 
-0.141244 0.00137165 0.282156 0.0025 1.00108 1.00152 2.50108 0.00499459 143 4 1 1.28418e-07 
-0.138746 0.000904389 0.199931 0.0025 1.00071 1.001 2.50071 0.00499644 144 4 1 9.73579e-08 
-0.136248 0.000579928 0.137239 0.0025 1.00046 1.00064 2.50045 0.00499772 145 4 1 7.1199e-08 
-0.133749 0.00036155 0.0913162 0.0025 1.00028 1.0004 2.50028 0.00499858 146 4 1 5.03106e-08 
-0.131249 0.000219026 0.0589135 0.0025 1.00017 1.00024 2.50017 0.00499914 147 4 1 3.43884e-08 
-0.12875 0.000128821 0.0368506 0.0025 1.0001 1.00014 2.5001 0.00499949 148 4 1 2.27509e-08 
-0.12625 7.34715e-05 0.0223375 0.0025 1.00006 1.00008 2.50006 0.00499971 149 4 1 1.45709e-08 
-0.12375 4.05682e-05 0.0131097 0.0025 1.00003 1.00005 2.50003 0.00499984 150 4 1 9.03123e-09 
-0.12125 2.16399e-05 0.00743914 0.0025 1.00002 1.00002 2.50002 0.00499991 151 4 1 5.41335e-09 
-0.11875 1.11201e-05 0.00407362 0.0025 1.00001 1.00001 2.50001 0.00499996 152 4 1 3.13414e-09 
-0.11625 5.48433e-06 0.00214693 0.0025 1 1.00001 2.5 0.00499998 153 4 1 1.74961e-09 
-0.11375 2.58294e-06 0.0010851 0.0025 1 1 2.5 0.00499999 154 4 1 9.39458e-10 
-0.11125 1.15354e-06 0.000523343 0.0025 1 1 2.5 0.005 155 4 1 4.83583e-10 
-0.10875 4.83546e-07 0.000239171 0.0025 1 1 2.5 0.005 156 4 1 2.37525e-10 
-0.10625 1.87259e-07 0.000102491 0.0025 1 1 2.5 0.005 157 4 1 1.10591e-10 
-0.10375 6.52196e-08 4.04964e-05 0.0025 1 1 2.5 0.005 158 4 1 4.83313e-11 
-0.10125 1.93897e-08 1.43191e-05 0.0025 1 1 2.5 0.005 159 4 1 1.95201e-11 
-0.09875 4.31867e-09 4.25195e-06 0.0025 1 1 2.5 0.005 160 4 1 7.06706e-12 
-0.09625 3.68105e-10 9.09879e-07 0.0025 1 1 2.5 0.005 161 4 1 2.247e-12 
-0.09375 -1.12828e-10 -1.72153e-07 0.0025 1 1 2.5 0.005 162 5 1 4.73145e-13 
-0.09125 1.86597e-10 -9.25035e-08 0.0025 1 1 2.5 0.005 163 4 1 -1.01214e-13 
-0.08875 2.10546e-10 1.68969e-08 0.0025 1 1 2.5 0.005 164 3 1 -5.74353e-14 
-0.08625 1.45542e-10 3.74778e-08 0.0025 1 1 2.5 0.005 165 4 1 1.33049e-15 
-0.08375 8.08491e-11 2.89136e-08 0.0025 1 1 2.5 0.005 166 4 1 1.40194e-14 
-0.08125 3.84531e-11 1.71281e-08 0.0025 1 1 2.5 0.005 167 4 1 1.23343e-14 
-0.07875 1.58202e-11 8.45023e-09 0.0025 1 1 2.5 0.005 168 4 1 7.65894e-15 
-0.07625 5.50776e-12 3.57295e-09 0.0025 1 1 2.5 0.005 169 4 1 3.91651e-15 
-0.07375 1.51879e-12 1.2576e-09 0.0025 1 1 2.5 0.005 170 4 1 1.71347e-15 
-0.07125 2.54333e-13 3.36172e-10 0.0025 1 1 2.5 0.005 171 4 1 5.97566e-16 
-0.06875 -2.23413e-14 3.72324e-11 0.0025 1 1 2.5 0.005 172 4 1 1.92912e-16 
-0.06625 1.74536e-16 -2.48974e-11 0.0025 1 1 2.5 0.005 173 5 1 -3.55271e-19 
-0.06375 9.60536e-15 -8.46967e-12 0.0025 1 1 2.5 0.005 174 4 1 -2.16716e-17 
-0.06125 2.20955e-14 5.40012e-12 0.0025 1 1 2.5 0.005 175 3 1 3.58824e-17 
-0.05875 8.69273e-15 3.29692e-12 0.0025 1 1 2.5 0.005 176 4 1 -2.80664e-17 
-0.05625 4.25712e-15 3.63798e-12 0.0025 1 1 2.5 0.005 177 4 1 3.55271e-18 
-0.05375 1.06425e-15 3.41061e-13 0.0025 1 1 2.5 0.005 178 5 1 2.13163e-18 
-0.05125 -3.88806e-16 -1.7053e-13 0.0025 1 1 2.5 0.005 179 5 1 -1.42109e-18 
-0.04875 9.27815e-16 -5.68434e-14 0.0025 1 1 2.5 0.005 180 5 1 -3.90799e-18 
-0.04625 -9.46876e-16 -1.13687e-13 0.0025 1 1 2.5 0.005 181 5 1 3.19744e-18 
-0.04375 -2.00366e-15 1.45735e-43 0.0025 1 1 2.5 0.005 182 5 1 -7.4607e-18 
-0.04125 -1.97528e-15 2.27374e-13 0.0025 1 1 2.5 0.005 183 5 1 3.55271e-19 
-0.03875 -2.51019e-15 4.54747e-13 0.0025 1 1 2.5 0.005 184 5 1 -3.90799e-18 
-0.03625 9.73341e-16 -3.41061e-13 0.0025 1 1 2.5 0.005 185 4 1 -5.32907e-18 
-0.03375 1.01849e-16 -2.84217e-13 0.0025 1 1 2.5 0.005 186 4 1 -9.23706e-18 
-0.03125 1.89232e-15 1.13687e-13 0.0025 1 1 2.5 0.005 187 3 1 4.76064e-17 
-0.02875 -1.8812e-16 5.68434e-14 0.0025 1 1 2.5 0.005 188 4 1 -3.94351e-17 
-0.02625 -6.76558e-16 -5.68434e-14 0.0025 1 1 2.5 0.005 189 5 1 9.59233e-18 
-0.02375 -1.33238e-15 -1.41995e-27 0.0025 1 1 2.5 0.005 190 3 1 -2.84217e-18 
-0.02125 -1.88598e-15 -5.68434e-14 0.0025 1 1 2.5 0.005 191 4 1 5.68434e-18 
-0.01875 2.26877e-17 5.68434e-14 0.0025 1 1 2.5 0.005 192 5 1 -8.17124e-18 
-0.01625 -2.35581e-15 -1.26218e-27 0.0025 1 1 2.5 0.005 193 4 1 3.19744e-18 
-0.01375 7.17407e-16 -1.13687e-13 0.0025 1 1 2.5 0.005 194 3 1 2.84217e-18 
-0.01125 -1.5581e-16 1.13687e-13 0.0025 1 1 2.5 0.005 195 4 1 -2.4869e-18 
-0.00875 -1.12479e-15 5.68434e-14 0.0025 1 1 2.5 0.005 196 5 1 2.46519e-33 
-0.00625 -3.24958e-16 1.13687e-13 0.0025 1 1 2.5 0.005 197 3 1 -7.10543e-19 
-0.00375 5.29992e-16 3.9443e-29 0.0025 1 1 2.5 0.005 198 4 1 -7.10543e-19 
-0.00125 2.78063e-16 5.68434e-13 0.0025 1 1 2.5 0.005 199 4 1 3.77482e-33 
0.00125 6.03011e-16 2.84217e-13 0.0025 1 1 2.5 0.005 200 4 1 3.55271e-19 
0.00375 5.5719e-16 1.13687e-13 0.0025 1 1 2.5 0.005 201 5 1 -1.06581e-18 
0.00625 6.26778e-16 -3.41061e-13 0.0025 1 1 2.5 0.005 202 4 1 1.2326e-33 
0.00875 1.48879e-15 1.13687e-13 0.0025 1 1 2.5 0.005 203 3 1 -1.42109e-18 
0.01125 2.24774e-15 2.46519e-28 0.0025 1 1 2.5 0.005 204 5 1 2.84217e-18 
0.01375 1.21811e-15 -7.38964e-13 0.0025 1 1 2.5 0.005 205 3 1 -4.61853e-18 
0.01625 1.25396e-15 1.81899e-12 0.0025 1 1 2.5 0.005 206 4 1 -3.55271e-19 
0.01875 2.25086e-15 -2.21689e-12 0.0025 1 1 2.5 0.005 207 4 1 -3.55271e-19 
0.02125 2.30747e-15 9.66338e-13 0.0025 1 1 2.5 0.005 208 3 1 -2.4869e-18 
0.02375 2.49213e-15 -3.41061e-13 0.0025 1 1 2.5 0.005 209 3 1 1.38556e-17 
0.02625 2.16341e-15 2.27374e-13 0.0025 1 1 2.5 0.005 210 5 1 -2.27374e-17 
0.02875 3.39588e-16 -7.95808e-13 0.0025 1 1 2.5 0.005 211 4 1 1.1724e-17 
0.03125 5.17386e-15 9.09495e-13 0.0025 1 1 2.5 0.005 212 3 1 9.23706e-18 
0.03375 3.90706e-15 1.13687e-13 0.0025 1 1 2.5 0.005 213 4 1 -1.06581e-18 
0.03625 4.75137e-16 1.13687e-13 0.0025 1 1 2.5 0.005 214 5 1 -1.81188e-17 
0.03875 2.8635e-15 -1.13687e-13 0.0025 1 1 2.5 0.005 215 3 1 1.98952e-17 
0.04125 1.11808e-15 -1.13687e-13 0.0025 1 1 2.5 0.005 216 4 1 -9.9476e-18 
0.04375 1.15514e-15 -2.8399e-27 0.0025 1 1 2.5 0.005 217 4 1 -9.23706e-18 
0.04625 1.65491e-15 -1.13687e-13 0.0025 1 1 2.5 0.005 218 3 1 1.49214e-17 
0.04875 1.11193e-15 -1.7053e-13 0.0025 1 1 2.5 0.005 219 4 1 -7.81597e-18 
0.05125 2.03569e-16 -5.68434e-14 0.0025 1 1 2.5 0.005 220 4 1 -7.4607e-18 
0.05375 2.41198e-15 -5.68434e-14 0.0025 1 1 2.5 0.005 221 3 1 1.3145e-17 
0.05625 1.11461e-15 2.27374e-13 0.0025 1 1 2.5 0.005 222 5 1 1.88294e-17 
0.05875 2.43314e-15 -4.37694e-12 0.0025 1 1 2.5 0.005 223 4 1 -9.34364e-17 
0.06125 -1.1606e-14 -7.04858e-12 0.0025 1 1 2.5 0.005 224 4 1 1.00542e-16 
0.06375 -1.90024e-14 3.75167e-12 0.0025 1 1 2.5 0.005 225 3 1 -2.41585e-17 
0.06625 8.77824e-15 3.1207e-11 0.0025 1 1 2.5 0.005 226 5 1 -2.13163e-17 
0.06875 3.02315e-14 -3.62093e-11 0.0025 1 1 2.5 0.005 227 4 1 1.98952e-16 
