# Time [s]: 0.258011
# Columns: pos [m], vel [m/s], acc [m/s^2], mass [kg], dens [kg/m^3], pres [Pa], ene [J/kg], sml [m], id, neighbor, alpha, gradh, ...additional?
1.32856 -0.673123 0.000499006 0.0025 0.511034 0.432707 2.15247 0.00978408 0 4 1 -0.000134225 
1.33334 -0.673127 0.000586386 0.0025 0.53689 0.426169 1.95001 0.0093129 1 4 1 0.000179249 
1.33788 -0.673132 0.000683174 0.0025 0.548218 0.430838 1.96847 0.00912046 2 3 1 -1.90587e-05 
1.34246 -0.673137 0.000788966 0.0025 0.545952 0.429172 1.96462 0.00915832 3 5 1 3.48567e-06 
1.34704 -0.673142 0.00089803 0.0025 0.546349 0.429325 1.96455 0.00915167 4 4 1 -1.38969e-07 
1.35161 -0.673147 0.00101099 0.0025 0.546358 0.429293 1.96431 0.00915152 5 4 1 1.43416e-07 
1.35619 -0.673152 0.00113213 0.0025 0.546378 0.42929 1.96425 0.00915117 6 4 1 -3.84641e-09 
1.36076 -0.673157 0.00126416 0.0025 0.546389 0.429284 1.96419 0.00915098 7 4 1 7.8726e-09 
1.36534 -0.673163 0.00140243 0.0025 0.546401 0.429281 1.96413 0.00915079 8 4 1 4.39064e-09 
1.36992 -0.673169 0.0015346 0.0025 0.54641 0.429277 1.96408 0.00915064 9 4 1 5.11788e-09 
1.37449 -0.673175 0.00164946 0.0025 0.546418 0.429273 1.96403 0.0091505 10 4 1 -2.5625e-09 
1.37907 -0.673182 0.00174971 0.0025 0.546425 0.429268 1.96398 0.00915038 11 4 1 4.42829e-09 
1.38364 -0.67319 0.00185612 0.0025 0.546432 0.429264 1.96394 0.00915027 12 4 1 2.52575e-09 
1.38822 -0.673198 0.00199412 0.0025 0.546436 0.429259 1.9639 0.00915019 13 4 1 3.17041e-09 
1.39279 -0.673206 0.00217086 0.0025 0.54644 0.429253 1.96386 0.00915014 14 4 1 1.63318e-09 
1.39737 -0.673216 0.00236543 0.0025 0.546442 0.429247 1.96383 0.0091501 15 4 1 -2.10738e-09 
1.40194 -0.673226 0.00254748 0.0025 0.546444 0.429241 1.96379 0.00915007 16 4 1 4.39472e-09 
1.40652 -0.673237 0.00271098 0.0025 0.546444 0.429234 1.96376 0.00915006 17 3 1 9.93544e-10 
1.41109 -0.673249 0.00288855 0.0025 0.546444 0.429227 1.96373 0.00915007 18 4 1 -1.73625e-09 
1.41567 -0.673263 0.00312562 0.0025 0.546442 0.429219 1.9637 0.00915009 19 4 1 2.01235e-09 
1.42024 -0.673277 0.00343609 0.0025 0.54644 0.42921 1.96367 0.00915013 20 4 1 3.15548e-10 
1.42482 -0.673293 0.00378646 0.0025 0.546436 0.429201 1.96364 0.00915019 21 4 1 2.39367e-10 
1.42939 -0.67331 0.00413041 0.0025 0.546432 0.42919 1.96361 0.00915028 22 4 1 9.03376e-11 
1.43397 -0.673329 0.00446079 0.0025 0.546426 0.429179 1.96358 0.00915038 23 4 1 -1.15375e-09 
1.43854 -0.67335 0.00482398 0.0025 0.546418 0.429167 1.96354 0.0091505 24 4 1 3.76526e-10 
1.44312 -0.673373 0.00528113 0.0025 0.54641 0.429154 1.96351 0.00915064 25 4 1 -6.12509e-10 
1.44769 -0.673398 0.00585808 0.0025 0.5464 0.429139 1.96348 0.0091508 26 4 1 -2.0146e-09 
1.45227 -0.673426 0.00653225 0.0025 0.546389 0.429123 1.96345 0.009151 27 4 1 -6.95594e-10 
1.45684 -0.673456 0.00726053 0.0025 0.546375 0.429104 1.96341 0.00915122 28 4 1 -1.23812e-09 
1.46142 -0.67349 0.0080172 0.0025 0.54636 0.429084 1.96338 0.00915148 29 4 1 -3.01961e-09 
1.466 -0.673527 0.00881889 0.0025 0.546342 0.429062 1.96334 0.00915177 30 4 1 -1.96269e-09 
1.47057 -0.67357 0.0097342 0.0025 0.546322 0.429037 1.9633 0.00915211 31 4 1 -9.0279e-10 
1.47515 -0.673617 0.0108705 0.0025 0.546299 0.42901 1.96325 0.00915249 32 4 1 -4.37959e-09 
1.47972 -0.67367 0.0123144 0.0025 0.546274 0.428979 1.96321 0.00915292 33 4 1 -5.16965e-09 
1.4843 -0.673729 0.014037 0.0025 0.546244 0.428944 1.96315 0.00915341 34 4 1 -2.93962e-09 
1.48888 -0.673795 0.015867 0.0025 0.54621 0.428904 1.96309 0.00915398 35 4 1 -5.61848e-09 
1.49345 -0.673869 0.0176545 0.0025 0.546171 0.42886 1.96303 0.00915463 36 4 1 -6.41845e-09 
1.49803 -0.673953 0.0195385 0.0025 0.546128 0.42881 1.96295 0.00915536 37 4 1 -4.61697e-09 
-0.49739 -0.67405 0.0219386 0.0025 0.546079 0.428754 1.96288 0.00915618 38 4 1 -7.21588e-09 
-0.492812 -0.674159 0.0250813 0.0025 0.546024 0.428691 1.96279 0.00915711 39 4 1 -9.52307e-09 
-0.488233 -0.674279 0.0286368 0.0025 0.545961 0.428621 1.96269 0.00915816 40 4 1 -8.71087e-09 
-0.483654 -0.674413 0.0320962 0.0025 0.54589 0.428541 1.96258 0.00915935 41 4 1 -8.39277e-09 
-0.479074 -0.67456 0.0352688 0.0025 0.545811 0.428453 1.96246 0.00916068 42 4 1 -7.99664e-09 
-0.474493 -0.674723 0.0380434 0.0025 0.545726 0.428358 1.96233 0.00916211 43 4 1 -5.13393e-09 
-0.469912 -0.674899 0.040231 0.0025 0.545636 0.428258 1.96219 0.00916362 44 4 1 -1.13609e-09 
-0.465329 -0.675085 0.0417485 0.0025 0.545544 0.428155 1.96206 0.00916517 45 4 1 1.56087e-09 
-0.460746 -0.675269 0.0418192 0.0025 0.545452 0.428054 1.96192 0.0091667 46 4 1 7.18443e-09 
-0.456163 -0.675443 0.0395192 0.0025 0.545368 0.42796 1.96179 0.00916813 47 4 1 1.7119e-08 
-0.451578 -0.675593 0.0332212 0.0025 0.545296 0.42788 1.96168 0.00916933 48 4 1 2.86083e-08 
-0.446993 -0.675704 0.0214984 0.0025 0.545247 0.427825 1.96161 0.00917016 49 4 1 2.05269e-08 
-0.442408 -0.675773 0.0297035 0.0025 0.545217 0.427794 1.96156 0.00917066 50 5 1 9.79548e-08 
-0.437823 -0.675762 -0.0552134 0.0025 0.545268 0.427851 1.96163 0.0091698 51 4 1 1.5794e-07 
-0.433238 -0.675389 -0.087067 0.0025 0.545447 0.428048 1.96188 0.00916679 52 4 1 1.82962e-07 
-0.428656 -0.674895 -0.144384 0.0025 0.545779 0.428425 1.96235 0.00916121 53 4 1 5.46881e-07 
-0.424077 -0.67366 -0.448448 0.0025 0.546541 0.42928 1.96344 0.00914844 54 4 1 1.11884e-06 
-0.419507 -0.670663 -0.917718 0.0025 0.548113 0.431012 1.96569 0.0091222 55 4 1 1.33066e-06 
-0.414955 -0.665914 -1.24923 0.0025 0.550538 0.433675 1.96917 0.00908202 56 4 1 1.25636e-06 
-0.410425 -0.660029 -1.48529 0.0025 0.553626 0.437081 1.97357 0.00903137 57 4 1 1.38958e-06 
-0.405923 -0.653089 -1.76546 0.0025 0.557325 0.441181 1.97883 0.00897142 58 4 1 1.80178e-06 
-0.401454 -0.644787 -2.1428 0.0025 0.561752 0.446099 1.9851 0.00890073 59 4 1 2.24786e-06 
-0.397023 -0.634974 -2.53477 0.0025 0.566993 0.451937 1.99249 0.00881845 60 4 1 2.5644e-06 
-0.392635 -0.623741 -2.89777 0.0025 0.573017 0.458666 2.00093 0.00872574 61 4 1 2.64288e-06 
-0.388296 -0.611424 -3.13522 0.0025 0.579657 0.466112 2.01017 0.00862578 62 4 1 2.46426e-06 
-0.384009 -0.598584 -3.2347 0.0025 0.586649 0.473992 2.01983 0.00852298 63 4 1 2.24834e-06 
-0.379773 -0.585646 -3.27647 0.0025 0.593784 0.482075 2.02962 0.00842056 64 4 1 2.06154e-06 
-0.375588 -0.572819 -3.27001 0.0025 0.600935 0.490216 2.03936 0.00832036 65 4 1 1.83325e-06 
-0.371452 -0.560313 -3.20511 0.0025 0.607991 0.498288 2.0489 0.00822381 66 4 1 1.66675e-06 
-0.367364 -0.548183 -3.15408 0.0025 0.6149 0.506232 2.05818 0.0081314 67 4 1 1.54538e-06 
-0.363321 -0.536456 -3.08666 0.0025 0.621654 0.514031 2.06719 0.00804306 68 4 1 1.42977e-06 
-0.359321 -0.525093 -3.02391 0.0025 0.628244 0.521676 2.07593 0.00795869 69 4 1 1.34799e-06 
-0.355362 -0.514105 -2.96303 0.0025 0.634684 0.529178 2.08441 0.00787794 70 4 1 1.34015e-06 
-0.351443 -0.503397 -2.94832 0.0025 0.641021 0.536592 2.0927 0.00780006 71 4 1 1.36055e-06 
-0.347562 -0.492838 -2.93844 0.0025 0.647311 0.543981 2.10089 0.00772426 72 4 1 1.44455e-06 
-0.343718 -0.482342 -2.99832 0.0025 0.65363 0.551433 2.10907 0.00764958 73 4 1 1.5717e-06 
-0.339912 -0.471706 -3.0804 0.0025 0.660065 0.559049 2.11734 0.00757502 74 4 1 1.65744e-06 
-0.336143 -0.460866 -3.17466 0.0025 0.666652 0.566877 2.12577 0.00750016 75 4 1 1.7341e-06 
-0.332412 -0.449869 -3.27772 0.0025 0.673414 0.574942 2.13436 0.00742485 76 4 1 1.79158e-06 
-0.328718 -0.43861 -3.38069 0.0025 0.680353 0.583251 2.14313 0.00734913 77 4 1 1.78725e-06 
-0.325062 -0.427235 -3.44819 0.0025 0.687435 0.591766 2.15203 0.00727341 78 4 1 1.72611e-06 
-0.321444 -0.415833 -3.48159 0.0025 0.6946 0.600416 2.16097 0.00719839 79 4 1 1.70484e-06 
-0.317864 -0.404435 -3.53247 0.0025 0.701824 0.609175 2.16993 0.00712429 80 4 1 1.67652e-06 
-0.31432 -0.393049 -3.5544 0.0025 0.709091 0.618022 2.17889 0.00705128 81 4 1 1.61866e-06 
-0.310812 -0.381746 -3.56859 0.0025 0.716369 0.626919 2.1878 0.00697964 82 4 1 1.57785e-06 
-0.30734 -0.37056 -3.57827 0.0025 0.723644 0.635849 2.19666 0.00690948 83 4 1 1.53983e-06 
-0.303902 -0.359442 -3.58541 0.0025 0.730907 0.6448 2.20545 0.00684082 84 4 1 1.48917e-06 
-0.300499 -0.348514 -3.57709 0.0025 0.738146 0.653758 2.21416 0.00677373 85 4 1 1.49076e-06 
-0.297129 -0.337631 -3.61215 0.0025 0.745379 0.662744 2.22281 0.006708 86 4 1 1.44867e-06 
-0.293791 -0.326873 -3.59364 0.0025 0.7526 0.671748 2.2314 0.00664364 87 4 1 1.41775e-06 
-0.290485 -0.316217 -3.61982 0.0025 0.759801 0.680764 2.23991 0.00658067 88 4 1 1.38264e-06 
-0.28721 -0.305663 -3.6002 0.0025 0.766982 0.689787 2.24836 0.00651906 89 4 1 1.34513e-06 
-0.283966 -0.295247 -3.61314 0.0025 0.774134 0.698808 2.25672 0.00645883 90 4 1 1.3358e-06 
-0.280751 -0.284901 -3.61394 0.0025 0.781272 0.707845 2.26502 0.00639982 91 4 1 1.315e-06 
-0.277566 -0.274706 -3.62914 0.0025 0.788398 0.716901 2.27326 0.00634198 92 4 1 1.31624e-06 
-0.274409 -0.264515 -3.65208 0.0025 0.795528 0.725991 2.28146 0.00628514 93 4 1 1.2256e-06 
-0.27128 -0.254493 -3.60048 0.0025 0.802616 0.735064 2.28956 0.00622963 94 4 1 1.25114e-06 
-0.268179 -0.244546 -3.67134 0.0025 0.809692 0.744153 2.29762 0.00617519 95 4 1 1.22092e-06 
-0.265105 -0.234644 -3.62199 0.0025 0.81676 0.753259 2.30562 0.00612175 96 4 1 1.12811e-06 
-0.262057 -0.224975 -3.60973 0.0025 0.823764 0.762322 2.3135 0.0060697 97 4 1 1.23091e-06 
-0.259035 -0.215267 -3.69723 0.0025 0.830797 0.771448 2.32139 0.00601832 98 4 1 1.16394e-06 
-0.256039 -0.205624 -3.63626 0.0025 0.837828 0.7806 2.32922 0.00596781 99 4 1 1.06906e-06 
-0.253067 -0.196229 -3.63021 0.0025 0.844795 0.789708 2.33695 0.00591859 100 4 1 1.19113e-06 
-0.25012 -0.186729 -3.73328 0.0025 0.851802 0.798889 2.34469 0.00586991 101 4 1 1.05873e-06 
-0.247197 -0.177354 -3.60805 0.0025 0.858772 0.808051 2.35234 0.00582227 102 4 1 9.55567e-07 
-0.244298 -0.168285 -3.60704 0.0025 0.865637 0.817118 2.35984 0.00577609 103 4 1 1.15767e-06 
-0.241421 -0.159081 -3.7463 0.0025 0.87257 0.826292 2.36739 0.0057302 104 4 1 1.05375e-06 
-0.238567 -0.149869 -3.64536 0.0025 0.879509 0.835498 2.3749 0.00568499 105 4 1 8.79559e-07 
-0.235736 -0.14106 -3.58445 0.0025 0.886328 0.844589 2.38224 0.00564125 106 4 1 1.10494e-06 
-0.232926 -0.132108 -3.77959 0.0025 0.893211 0.853789 2.38963 0.00559778 107 4 1 1.09641e-06 
-0.230138 -0.123014 -3.73379 0.0025 0.900166 0.863094 2.39706 0.00555453 108 4 1 6.96847e-07 
-0.227371 -0.114418 -3.46367 0.0025 0.906897 0.872149 2.4042 0.0055133 109 4 1 9.04664e-07 
-0.224625 -0.106066 -3.69577 0.0025 0.91358 0.881176 2.41127 0.00547297 110 4 1 1.21672e-06 
-0.221898 -0.0971224 -3.84735 0.0025 0.920483 0.890495 2.41855 0.00543193 111 4 1 7.41414e-07 
-0.219193 -0.0885855 -3.49722 0.0025 0.927243 0.899657 2.42564 0.00539233 112 4 1 6.58654e-07 
-0.216506 -0.0805478 -3.54544 0.0025 0.933795 0.908588 2.43247 0.0053545 113 4 1 1.14116e-06 
-0.213838 -0.0720641 -3.85288 0.0025 0.940549 0.917798 2.4395 0.00531605 114 4 1 9.59686e-07 
-0.21119 -0.0634666 -3.69237 0.0025 0.947375 0.927122 2.44657 0.00527774 115 4 1 6.07077e-07 
-0.20856 -0.0554211 -3.54633 0.0025 0.953967 0.93617 2.45336 0.00524127 116 4 1 6.57457e-07 
-0.205949 -0.0475118 -3.51254 0.0025 0.960393 0.945006 2.45996 0.0052062 117 4 1 5.03489e-07 
-0.203354 -0.0399993 -3.23958 0.0025 0.966614 0.953594 2.46631 0.0051727 118 4 1 8.78082e-07 
-0.200776 -0.03257 -3.68708 0.0025 0.972952 0.962393 2.47275 0.005139 119 4 1 1.66897e-06 
-0.198215 -0.0237564 -4.41895 0.0025 0.979965 0.972084 2.47992 0.00510222 120 4 1 2.8626e-07 
-0.195674 -0.0153016 -3.12521 0.0025 0.986532 0.981138 2.48656 0.00506826 121 4 1 -1.38722e-06 
-0.193147 -0.0103259 -1.66172 0.0025 0.991354 0.98793 2.49133 0.0050436 122 4 1 1.0744e-06 
-0.19063 -0.00493924 -3.83043 0.0025 0.996606 0.995384 2.49659 0.00501703 123 4 1 3.56522e-06 
-0.18813 0.00545748 -5.69771 0.0025 1.00426 1.00598 2.50437 0.0049788 124 4 1 -6.29256e-07 
-0.185651 0.0141895 -2.24801 0.0025 1.01075 1.01491 2.51086 0.00494684 125 4 1 -4.09612e-06 
-0.183183 0.0155286 0.810637 0.0025 1.01298 1.01821 2.51291 0.00493591 126 4 1 5.38695e-07 
-0.180715 0.0166764 -2.77918 0.0025 1.01532 1.02166 2.51521 0.00492458 127 4 1 3.6093e-06 
-0.178258 0.0251072 -4.38949 0.0025 1.02071 1.02908 2.5207 0.00489856 128 4 1 -1.57718e-06 
-0.175817 0.0299714 -0.671968 0.0025 1.02452 1.03435 2.52446 0.00488031 129 4 1 -3.33997e-06 
-0.173378 0.0295408 0.647848 0.0025 1.02453 1.03446 2.52441 0.00488026 130 3 1 -1.24697e-06 
-0.170936 0.0275804 1.10458 0.0025 1.02289 1.03218 2.52277 0.00488812 131 4 1 -3.68794e-07 
-0.16849 0.0250525 1.28464 0.0025 1.02072 1.02913 2.52062 0.0048985 132 4 1 -7.04076e-08 
-0.166038 0.0222959 1.3594 0.0025 1.01836 1.02581 2.51829 0.00490984 133 4 1 6.06787e-08 
-0.16358 0.0194664 1.37396 0.0025 1.01596 1.02242 2.5159 0.00492146 134 4 1 1.3479e-07 
-0.161116 0.0166611 1.3476 0.0025 1.01359 1.01909 2.51355 0.00493295 135 4 1 1.86696e-07 
-0.158647 0.013957 1.28605 0.0025 1.01133 1.01591 2.5113 0.00494398 136 4 1 2.26081e-07 
-0.156172 0.011423 1.19272 0.0025 1.00923 1.01296 2.50921 0.00495427 137 4 1 2.53914e-07 
-0.153693 0.00911952 1.07225 0.0025 1.00734 1.0103 2.50732 0.00496359 138 4 1 2.68113e-07 
-0.151209 0.00709288 0.932323 0.0025 1.00568 1.00798 2.50567 0.00497175 139 4 1 2.67352e-07 
-0.148721 0.00536992 0.78299 0.0025 1.00429 1.00602 2.50428 0.00497866 140 4 1 2.52515e-07 
-0.14623 0.00395556 0.634841 0.0025 1.00315 1.00442 2.50314 0.00498432 141 4 1 2.2666e-07 
-0.143737 0.00283445 0.497057 0.0025 1.00225 1.00316 2.50224 0.00498878 142 4 1 1.94055e-07 
-0.141241 0.00197583 0.376096 0.0025 1.00156 1.0022 2.50156 0.00499219 143 4 1 1.59035e-07 
-0.138744 0.00133993 0.275268 0.0025 1.00106 1.00149 2.50105 0.00499471 144 4 1 1.25166e-07 
-0.136247 0.000884025 0.195073 0.0025 1.0007 1.00098 2.50069 0.00499652 145 4 1 9.48604e-08 
-0.133748 0.000567354 0.133962 0.0025 1.00045 1.00063 2.50044 0.00499777 146 4 1 6.93784e-08 
-0.131249 0.000354091 0.0891982 0.0025 1.00028 1.00039 2.50028 0.00499861 147 4 1 4.90445e-08 
-0.128749 0.000214788 0.0576022 0.0025 1.00017 1.00024 2.50017 0.00499916 148 4 1 3.35464e-08 
-0.12625 0.000126524 0.0360739 0.0025 1.0001 1.00014 2.5001 0.0049995 149 4 1 2.22149e-08 
-0.12375 7.2292e-05 0.0218986 0.0025 1.00006 1.00008 2.50006 0.00499972 150 4 1 1.42445e-08 
-0.12125 4.00012e-05 0.0128744 0.0025 1.00003 1.00004 2.50003 0.00499984 151 4 1 8.8416e-09 
-0.11875 2.13902e-05 0.00732052 0.0025 1.00002 1.00002 2.50002 0.00499992 152 4 1 5.30872e-09 
-0.11625 1.10235e-05 0.00401829 0.0025 1.00001 1.00001 2.50001 0.00499996 153 4 1 3.07974e-09 
-0.11375 5.45534e-06 0.00212376 0.0025 1 1.00001 2.5 0.00499998 154 4 1 1.72331e-09 
-0.11125 2.57987e-06 0.00107701 0.0025 1 1 2.5 0.00499999 155 4 1 9.27911e-10 
-0.10875 1.15798e-06 0.000521553 0.0025 1 1 2.5 0.005 156 4 1 4.79221e-10 
-0.10625 4.8851e-07 0.000239551 0.0025 1 1 2.5 0.005 157 4 1 2.36321e-10 
-0.10375 1.90786e-07 0.000103315 0.0025 1 1 2.5 0.005 158 4 1 1.10569e-10 
-0.10125 6.72563e-08 4.11778e-05 0.0025 1 1 2.5 0.005 159 4 1 4.86256e-11 
-0.09875 2.03895e-08 1.4745e-05 0.0025 1 1 2.5 0.005 160 4 1 1.98038e-11 
-0.09625 4.73113e-09 4.48539e-06 0.0025 1 1 2.5 0.005 161 4 1 7.25549e-12 
-0.09375 5.01711e-10 9.87761e-07 0.0025 1 1 2.5 0.005 162 4 1 2.34702e-12 
-0.09125 -1.25795e-10 -9.88783e-08 0.0025 1 1 2.5 0.005 163 5 1 5.34071e-13 
-0.08875 1.56461e-10 -1.08204e-07 0.0025 1 1 2.5 0.005 164 4 1 -7.45061e-14 
-0.08625 1.98421e-10 1.27141e-08 0.0025 1 1 2.5 0.005 165 3 1 -6.25395e-14 
-0.08375 1.41173e-10 3.4323e-08 0.0025 1 1 2.5 0.005 166 4 1 -1.52944e-15 
-0.08125 7.99421e-11 2.78094e-08 0.0025 1 1 2.5 0.005 167 4 1 1.25809e-14 
-0.07875 3.86532e-11 1.68323e-08 0.0025 1 1 2.5 0.005 168 4 1 1.17709e-14 
-0.07625 1.61787e-11 8.46063e-09 0.0025 1 1 2.5 0.005 169 4 1 7.49267e-15 
-0.07375 5.7709e-12 3.64014e-09 0.0025 1 1 2.5 0.005 170 4 1 3.92362e-15 
-0.07125 1.64178e-12 1.31365e-09 0.0025 1 1 2.5 0.005 171 4 1 1.70175e-15 
-0.06875 3.02223e-13 3.7096e-10 0.0025 1 1 2.5 0.005 172 4 1 6.66489e-16 
-0.06625 -1.38504e-14 4.87717e-11 0.0025 1 1 2.5 0.005 173 4 1 1.68043e-16 
-0.06375 -8.86422e-15 -1.79057e-11 0.0025 1 1 2.5 0.005 174 5 1 1.98952e-17 
-0.06125 1.54077e-14 -1.19371e-11 0.0025 1 1 2.5 0.005 175 3 1 3.19744e-17 
-0.05875 1.69846e-14 5.05906e-12 0.0025 1 1 2.5 0.005 176 4 1 -4.01457e-17 
-0.05625 1.05059e-14 1.59162e-12 0.0025 1 1 2.5 0.005 177 4 1 7.10543e-18 
-0.05375 4.591e-15 4.09273e-12 0.0025 1 1 2.5 0.005 178 4 1 2.13163e-18 
-0.05125 -2.31677e-16 4.54747e-13 0.0025 1 1 2.5 0.005 179 5 1 1.77636e-18 
-0.04875 5.61222e-16 -2.27374e-13 0.0025 1 1 2.5 0.005 180 5 1 -3.90799e-18 
-0.04625 -1.10398e-15 -5.68434e-14 0.0025 1 1 2.5 0.005 181 5 1 3.19744e-18 
-0.04375 -2.03859e-15 -1.13687e-13 0.0025 1 1 2.5 0.005 182 5 1 -7.4607e-18 
-0.04125 -1.38177e-15 3.41061e-13 0.0025 1 1 2.5 0.005 183 5 1 3.55271e-19 
-0.03875 -1.84688e-15 3.41061e-13 0.0025 1 1 2.5 0.005 184 5 1 -3.55271e-18 
-0.03625 4.14743e-16 -3.41061e-13 0.0025 1 1 2.5 0.005 185 4 1 -6.03961e-18 
-0.03375 -4.74181e-16 -2.27374e-13 0.0025 1 1 2.5 0.005 186 4 1 -8.88178e-18 
-0.03125 2.10179e-15 1.13687e-13 0.0025 1 1 2.5 0.005 187 3 1 4.76064e-17 
-0.02875 -1.18299e-16 1.7053e-13 0.0025 1 1 2.5 0.005 188 4 1 -3.94351e-17 
-0.02625 -6.7655e-16 -5.68434e-14 0.0025 1 1 2.5 0.005 189 5 1 9.59233e-18 
-0.02375 -1.36729e-15 -1.93271e-27 0.0025 1 1 2.5 0.005 190 3 1 -2.84217e-18 
-0.02125 -1.99072e-15 -5.68434e-14 0.0025 1 1 2.5 0.005 191 4 1 5.68434e-18 
-0.01875 5.75868e-17 5.68434e-14 0.0025 1 1 2.5 0.005 192 5 1 -8.52651e-18 
-0.01625 -2.28598e-15 -1.26218e-27 0.0025 1 1 2.5 0.005 193 4 1 3.19744e-18 
-0.01375 7.34887e-16 5.68434e-14 0.0025 1 1 2.5 0.005 194 3 1 2.84217e-18 
-0.01125 1.87503e-17 1.17343e-27 0.0025 1 1 2.5 0.005 195 4 1 -1.77636e-18 
-0.00875 -1.05499e-15 5.68434e-14 0.0025 1 1 2.5 0.005 196 4 1 1.2326e-33 
-0.00625 1.81314e-16 3.97904e-13 0.0025 1 1 2.5 0.005 197 4 1 3.55271e-19 
-0.00375 4.60152e-16 -1.13687e-13 0.0025 1 1 2.5 0.005 198 4 1 3.77482e-33 
-0.00125 8.3662e-16 2.27374e-13 0.0025 1 1 2.5 0.005 199 4 1 1.2326e-33 
0.00125 1.03939e-15 1.13687e-13 0.0025 1 1 2.5 0.005 200 4 1 -3.55271e-19 
0.00375 6.96865e-16 3.41061e-13 0.0025 1 1 2.5 0.005 201 4 1 -3.55271e-19 
0.00625 9.23555e-16 1.7053e-13 0.0025 1 1 2.5 0.005 202 5 1 -1.06581e-18 
0.00875 1.47136e-15 -5.11591e-13 0.0025 1 1 2.5 0.005 203 4 1 3.55271e-19 
0.01125 5.0198e-16 -7.95808e-13 0.0025 1 1 2.5 0.005 204 3 1 2.4869e-18 
0.01375 1.7595e-15 1.47793e-12 0.0025 1 1 2.5 0.005 205 5 1 -4.26326e-18 
0.01625 2.58026e-15 -1.25056e-12 0.0025 1 1 2.5 0.005 206 4 1 -7.10543e-19 
0.01875 6.97709e-16 6.82121e-13 0.0025 1 1 2.5 0.005 207 4 1 7.10543e-19 
0.02125 1.92308e-15 -2.84217e-13 0.0025 1 1 2.5 0.005 208 4 1 -2.84217e-18 
0.02375 2.40489e-15 -1.53477e-12 0.0025 1 1 2.5 0.005 209 3 1 1.20792e-17 
0.02625 2.53004e-15 1.64846e-12 0.0025 1 1 2.5 0.005 210 5 1 -2.0961e-17 
0.02875 1.35253e-15 1.47793e-12 0.0025 1 1 2.5 0.005 211 4 1 1.24345e-17 
0.03125 2.86886e-15 -3.18323e-12 0.0025 1 1 2.5 0.005 212 3 1 1.3145e-17 
0.03375 5.82754e-15 1.13687e-12 0.0025 1 1 2.5 0.005 213 4 1 -7.10543e-18 
0.03625 8.24301e-16 7.95808e-13 0.0025 1 1 2.5 0.005 214 5 1 -1.52767e-17 
0.03875 2.65403e-15 -1.13687e-13 0.0025 1 1 2.5 0.005 215 3 1 1.98952e-17 
0.04125 9.95897e-16 -5.68434e-14 0.0025 1 1 2.5 0.005 216 4 1 -9.9476e-18 
0.04375 9.80571e-16 -1.13687e-13 0.0025 1 1 2.5 0.005 217 4 1 -9.23706e-18 
0.04625 1.44544e-15 -1.13687e-13 0.0025 1 1 2.5 0.005 218 3 1 1.49214e-17 
0.04875 9.02456e-16 -5.68434e-14 0.0025 1 1 2.5 0.005 219 4 1 -7.81597e-18 
0.05125 -5.90137e-18 -1.7053e-13 0.0025 1 1 2.5 0.005 220 4 1 -7.4607e-18 
0.05375 2.42944e-15 1.13687e-13 0.0025 1 1 2.5 0.005 221 3 1 1.45661e-17 
0.05625 -8.75859e-16 -4.66116e-12 0.0025 1 1 2.5 0.005 222 5 1 2.06057e-17 
0.05875 -1.01181e-14 -4.20641e-12 0.0025 1 1 2.5 0.005 223 4 1 -1.02318e-16 
0.06125 -1.51653e-14 2.84217e-12 0.0025 1 1 2.5 0.005 224 3 1 8.52651e-17 
0.06375 1.64197e-14 3.68914e-11 0.0025 1 1 2.5 0.005 225 5 1 1.63425e-17 
0.06625 1.56266e-14 -6.23004e-11 0.0025 1 1 2.5 0.005 226 4 1 1.59872e-16 
