# Time [s]: 0.259239
# Columns: pos [m], vel [m/s], acc [m/s^2], mass [kg], dens [kg/m^3], pres [Pa], ene [J/kg], sml [m], id, neighbor, alpha, gradh, ...additional?
1.32773 -0.673122 0.000493274 0.0025 0.511035 0.432708 2.15247 0.00978407 0 4 1 -0.000134225 
1.33251 -0.673127 0.000582247 0.0025 0.53689 0.42617 1.95002 0.00931289 1 4 1 0.000179249 
1.33705 -0.673131 0.000678416 0.0025 0.548219 0.430838 1.96847 0.00912044 2 3 1 -1.90587e-05 
1.34164 -0.673136 0.000782064 0.0025 0.545953 0.429173 1.96462 0.0091583 3 5 1 3.48567e-06 
1.34621 -0.673141 0.000888919 0.0025 0.546349 0.429326 1.96455 0.00915166 4 4 1 -1.38964e-07 
1.35079 -0.673146 0.0010008 0.0025 0.546358 0.429294 1.96432 0.0091515 5 4 1 1.43419e-07 
1.35536 -0.673151 0.00112171 0.0025 0.546379 0.429291 1.96425 0.00915115 6 4 1 -3.84394e-09 
1.35994 -0.673156 0.00125227 0.0025 0.54639 0.429285 1.96419 0.00915097 7 4 1 7.87913e-09 
1.36451 -0.673161 0.0013853 0.0025 0.546402 0.429282 1.96413 0.00915078 8 4 1 4.40601e-09 
1.36909 -0.673167 0.00150817 0.0025 0.546411 0.429278 1.96408 0.00915062 9 4 1 5.14145e-09 
1.37366 -0.673173 0.00161319 0.0025 0.546419 0.429274 1.96403 0.00915049 10 4 1 -2.53915e-09 
1.37824 -0.67318 0.00170847 0.0025 0.546426 0.429269 1.96398 0.00915036 11 4 1 4.44056e-09 
1.38281 -0.673187 0.00181694 0.0025 0.546433 0.429265 1.96394 0.00915025 12 4 1 2.52413e-09 
1.38739 -0.673195 0.00195945 0.0025 0.546438 0.42926 1.9639 0.00915017 13 4 1 3.16585e-09 
1.39196 -0.673204 0.00213464 0.0025 0.546441 0.429255 1.96386 0.00915012 14 4 1 1.64269e-09 
1.39654 -0.673213 0.00231746 0.0025 0.546444 0.429249 1.96383 0.00915007 15 4 1 -2.07744e-09 
1.40111 -0.673223 0.00248335 0.0025 0.546446 0.429243 1.96379 0.00915004 16 4 1 4.43158e-09 
1.40569 -0.673234 0.00263773 0.0025 0.546446 0.429236 1.96376 0.00915003 17 3 1 1.01491e-09 
1.41026 -0.673246 0.00281857 0.0025 0.546446 0.429229 1.96373 0.00915004 18 4 1 -1.73832e-09 
1.41484 -0.673259 0.00306335 0.0025 0.546444 0.429221 1.9637 0.00915006 19 4 1 2.00506e-09 
1.41941 -0.673273 0.00337128 0.0025 0.546442 0.429213 1.96367 0.0091501 20 4 1 3.31734e-10 
1.42399 -0.673289 0.00370258 0.0025 0.546439 0.429203 1.96364 0.00915015 21 4 1 2.88977e-10 
1.42857 -0.673305 0.00402043 0.0025 0.546434 0.429193 1.96361 0.00915023 22 4 1 1.52851e-10 
1.43314 -0.673324 0.00433367 0.0025 0.546428 0.429182 1.96358 0.00915033 23 4 1 -1.10914e-09 
1.43772 -0.673344 0.00469467 0.0025 0.546422 0.42917 1.96355 0.00915044 24 4 1 3.93412e-10 
1.44229 -0.673366 0.00515497 0.0025 0.546413 0.429157 1.96352 0.00915058 25 4 1 -6.02616e-10 
1.44687 -0.673391 0.00572487 0.0025 0.546404 0.429143 1.96349 0.00915074 26 4 1 -1.97966e-09 
1.45144 -0.673418 0.00637335 0.0025 0.546393 0.429127 1.96346 0.00915093 27 4 1 -6.17781e-10 
1.45602 -0.673447 0.00706022 0.0025 0.54638 0.42911 1.96342 0.00915114 28 4 1 -1.12386e-09 
1.46059 -0.67348 0.00777047 0.0025 0.546365 0.42909 1.96339 0.0091514 29 4 1 -2.89397e-09 
1.46517 -0.673517 0.00853459 0.0025 0.546348 0.429068 1.96335 0.00915168 30 4 1 -1.85774e-09 
1.46974 -0.673558 0.00943246 0.0025 0.546329 0.429044 1.96331 0.009152 31 4 1 -8.38968e-10 
1.47432 -0.673604 0.0105674 0.0025 0.546307 0.429018 1.96326 0.00915237 32 4 1 -4.33662e-09 
1.4789 -0.673655 0.0119945 0.0025 0.546282 0.428988 1.96322 0.00915279 33 4 1 -5.07122e-09 
1.48347 -0.673712 0.0136394 0.0025 0.546253 0.428954 1.96316 0.00915326 34 4 1 -2.70206e-09 
1.48805 -0.673776 0.0153255 0.0025 0.54622 0.428915 1.96311 0.00915382 35 4 1 -5.26231e-09 
1.49263 -0.673847 0.016979 0.0025 0.546183 0.428872 1.96304 0.00915444 36 4 1 -6.11544e-09 
1.4972 -0.67393 0.0188345 0.0025 0.546141 0.428824 1.96297 0.00915514 37 4 1 -4.52961e-09 
-0.498218 -0.674023 0.0212854 0.0025 0.546094 0.42877 1.9629 0.00915593 38 4 1 -7.26136e-09 
-0.49364 -0.674128 0.0244083 0.0025 0.54604 0.42871 1.96281 0.00915683 39 4 1 -9.4444e-09 
-0.489061 -0.674245 0.0278129 0.0025 0.545979 0.428641 1.96272 0.00915786 40 4 1 -8.4509e-09 
-0.484482 -0.674374 0.0311113 0.0025 0.54591 0.428563 1.96261 0.00915901 41 4 1 -8.18517e-09 
-0.479902 -0.674518 0.0342112 0.0025 0.545834 0.428478 1.96249 0.0091603 42 4 1 -8.07102e-09 
-0.475322 -0.674677 0.0370362 0.0025 0.545751 0.428385 1.96237 0.00916169 43 4 1 -5.67931e-09 
-0.47074 -0.67485 0.0395074 0.0025 0.545662 0.428286 1.96223 0.00916318 44 4 1 -2.31638e-09 
-0.466158 -0.675033 0.0414817 0.0025 0.545571 0.428185 1.9621 0.00916472 45 4 1 -8.68301e-11 
-0.461576 -0.675218 0.0420708 0.0025 0.545479 0.428083 1.96196 0.00916626 46 4 1 5.25915e-09 
-0.456992 -0.675394 0.0403126 0.0025 0.545392 0.427986 1.96183 0.00916772 47 4 1 1.47941e-08 
-0.452408 -0.675551 0.0350805 0.0025 0.545316 0.427902 1.96171 0.009169 48 4 1 2.58382e-08 
-0.447823 -0.675674 0.0260252 0.0025 0.54526 0.42784 1.96163 0.00916993 49 4 1 2.18291e-08 
-0.443238 -0.675743 0.0205788 0.0025 0.545224 0.427801 1.96157 0.00917054 50 5 1 6.75874e-08 
-0.438653 -0.675807 -0.0180729 0.0025 0.545245 0.427826 1.96159 0.00917019 51 4 1 1.50526e-07 
-0.434068 -0.675497 -0.0883804 0.0025 0.545388 0.427982 1.96179 0.00916779 52 4 1 1.64442e-07 
-0.429485 -0.675051 -0.113081 0.0025 0.545668 0.428297 1.96219 0.00916308 53 4 1 3.95039e-07 
-0.424905 -0.674137 -0.330982 0.0025 0.546264 0.428971 1.96304 0.00915308 54 4 1 9.66024e-07 
-0.420332 -0.67171 -0.786278 0.0025 0.547578 0.430424 1.96492 0.00913111 55 4 1 1.31829e-06 
-0.415774 -0.667401 -1.17097 0.0025 0.549774 0.432834 1.96807 0.00909465 56 4 1 1.27402e-06 
-0.411237 -0.661811 -1.41781 0.0025 0.552685 0.43604 1.97223 0.00904675 57 4 1 1.30771e-06 
-0.406727 -0.655197 -1.66936 0.0025 0.556194 0.439926 1.97723 0.00898966 58 4 1 1.65655e-06 
-0.402247 -0.647345 -2.02322 0.0025 0.560386 0.44458 1.98317 0.00892242 59 4 1 2.11021e-06 
-0.397804 -0.638011 -2.41183 0.0025 0.565371 0.450128 1.99021 0.00884374 60 4 1 2.46735e-06 
-0.393403 -0.627232 -2.78705 0.0025 0.571154 0.456581 1.99832 0.00875421 61 4 1 2.62215e-06 
-0.38905 -0.615232 -3.0642 0.0025 0.577606 0.463807 2.00732 0.00865642 62 4 1 2.50938e-06 
-0.384747 -0.602536 -3.19962 0.0025 0.584486 0.471549 2.01685 0.00855452 63 4 1 2.29426e-06 
-0.380495 -0.589657 -3.25492 0.0025 0.591564 0.479555 2.02658 0.00845217 64 4 1 2.10651e-06 
-0.376294 -0.576833 -3.2656 0.0025 0.598693 0.487659 2.03632 0.00835152 65 4 1 1.88342e-06 
-0.372143 -0.564252 -3.21076 0.0025 0.605756 0.495727 2.04589 0.00825415 66 4 1 1.70279e-06 
-0.36804 -0.552061 -3.16096 0.0025 0.612686 0.503682 2.05521 0.00816079 67 4 1 1.56821e-06 
-0.363982 -0.54025 -3.09257 0.0025 0.619463 0.511497 2.06427 0.00807151 68 4 1 1.45342e-06 
-0.359968 -0.528813 -3.03425 0.0025 0.626078 0.519159 2.07306 0.00798622 69 4 1 1.36288e-06 
-0.355996 -0.517747 -2.96871 0.0025 0.63254 0.526677 2.08159 0.00790464 70 4 1 1.32479e-06 
-0.352063 -0.507012 -2.93861 0.0025 0.63888 0.534083 2.0899 0.0078262 71 4 1 1.33937e-06 
-0.348169 -0.496439 -2.92712 0.0025 0.645154 0.541443 2.09809 0.00775009 72 4 1 1.3974e-06 
-0.344313 -0.485999 -2.95952 0.0025 0.651429 0.548833 2.10622 0.00767544 73 4 1 1.50798e-06 
-0.340493 -0.47546 -3.03297 0.0025 0.657786 0.556349 2.11442 0.00760126 74 4 1 1.62361e-06 
-0.336711 -0.464739 -3.13298 0.0025 0.66429 0.564065 2.12275 0.00752684 75 4 1 1.68785e-06 
-0.332966 -0.453857 -3.21813 0.0025 0.670958 0.572008 2.13125 0.00745204 76 4 1 1.75832e-06 
-0.329259 -0.442734 -3.33489 0.0025 0.677801 0.580192 2.13991 0.00737679 77 4 1 1.78736e-06 
-0.325589 -0.431448 -3.41219 0.0025 0.684809 0.588603 2.14874 0.00730131 78 4 1 1.72728e-06 
-0.321958 -0.42009 -3.4524 0.0025 0.691914 0.597169 2.15762 0.00722633 79 4 1 1.6942e-06 
-0.318363 -0.408751 -3.49748 0.0025 0.699084 0.605848 2.16654 0.00715222 80 4 1 1.67402e-06 
-0.314805 -0.3974 -3.53087 0.0025 0.706303 0.614624 2.17546 0.00707911 81 4 1 1.63013e-06 
-0.311284 -0.386117 -3.55015 0.0025 0.713547 0.623465 2.18435 0.00700724 82 4 1 1.57078e-06 
-0.307798 -0.374938 -3.55134 0.0025 0.720788 0.632339 2.19319 0.00693685 83 4 1 1.55029e-06 
-0.304347 -0.363841 -3.57744 0.0025 0.728026 0.641244 2.20197 0.00686789 84 4 1 1.48808e-06 
-0.30093 -0.35289 -3.55181 0.0025 0.73524 0.650158 2.21067 0.0068005 85 4 1 1.47496e-06 
-0.297546 -0.342054 -3.5894 0.0025 0.742439 0.659087 2.2193 0.00673456 86 4 1 1.45637e-06 
-0.294195 -0.331276 -3.57879 0.0025 0.749633 0.668044 2.22788 0.00666993 87 4 1 1.41245e-06 
-0.290876 -0.320647 -3.59462 0.0025 0.756806 0.67701 2.23638 0.00660671 88 4 1 1.38916e-06 
-0.287588 -0.310078 -3.59109 0.0025 0.763964 0.68599 2.24481 0.00654481 89 4 1 1.34146e-06 
-0.284331 -0.299668 -3.58698 0.0025 0.771091 0.694966 2.25317 0.00648432 90 4 1 1.33862e-06 
-0.281104 -0.289335 -3.60645 0.0025 0.778206 0.703959 2.26146 0.00642504 91 4 1 1.30128e-06 
-0.277906 -0.27914 -3.59266 0.0025 0.785301 0.712962 2.26968 0.00636698 92 4 1 1.30917e-06 
-0.274736 -0.268994 -3.63816 0.0025 0.792396 0.721994 2.27786 0.00630998 93 4 1 1.2515e-06 
-0.271596 -0.258908 -3.59395 0.0025 0.79947 0.731032 2.28597 0.00625414 94 4 1 1.21941e-06 
-0.268482 -0.249028 -3.62538 0.0025 0.806511 0.740064 2.294 0.00619954 95 4 1 1.24614e-06 
-0.265396 -0.239103 -3.6393 0.0025 0.813559 0.749131 2.302 0.00614583 96 4 1 1.1354e-06 
-0.262336 -0.229385 -3.57677 0.0025 0.820553 0.758164 2.30989 0.00609345 97 4 1 1.1743e-06 
-0.259302 -0.219782 -3.65131 0.0025 0.827534 0.767211 2.31773 0.00604205 98 4 1 1.21735e-06 
-0.256294 -0.210107 -3.6635 0.0025 0.834551 0.776329 2.32558 0.00599124 99 4 1 1.06284e-06 
-0.253311 -0.200654 -3.58343 0.0025 0.841505 0.785402 2.33331 0.00594173 100 4 1 1.12988e-06 
-0.250352 -0.191291 -3.68757 0.0025 0.848452 0.794498 2.34099 0.00589308 101 4 1 1.14945e-06 
-0.247418 -0.18182 -3.66451 0.0025 0.855429 0.803651 2.34868 0.00584502 102 4 1 9.48831e-07 
-0.244507 -0.172678 -3.55732 0.0025 0.862299 0.812705 2.3562 0.00579845 103 4 1 1.0432e-06 
-0.241619 -0.163637 -3.66547 0.0025 0.869148 0.821762 2.36367 0.00575276 104 4 1 1.15636e-06 
-0.238754 -0.154394 -3.71843 0.0025 0.87608 0.830944 2.37119 0.00570724 105 4 1 9.14395e-07 
-0.235912 -0.145434 -3.55343 0.0025 0.882924 0.840046 2.37858 0.005663 106 4 1 9.46339e-07 
-0.233091 -0.136677 -3.65694 0.0025 0.889711 0.84911 2.38587 0.0056198 107 4 1 1.17051e-06 
-0.230292 -0.127646 -3.79226 0.0025 0.896627 0.858356 2.39328 0.00557646 108 4 1 8.95346e-07 
-0.227515 -0.118735 -3.58207 0.0025 0.903472 0.867534 2.40057 0.00553421 109 4 1 6.8051e-07 
-0.224758 -0.110463 -3.47622 0.0025 0.910094 0.876465 2.40759 0.00549394 110 4 1 1.11362e-06 
-0.222021 -0.101854 -3.82877 0.0025 0.916848 0.885587 2.41472 0.00545347 111 4 1 1.05579e-06 
-0.219304 -0.0929896 -3.68321 0.0025 0.923712 0.894863 2.42194 0.00541294 112 4 1 5.75598e-07 
-0.216608 -0.0848144 -3.42639 0.0025 0.930306 0.903828 2.42883 0.00537458 113 4 1 8.76588e-07 
-0.21393 -0.0767047 -3.68648 0.0025 0.936881 0.912797 2.43568 0.00533686 114 4 1 1.149e-06 
-0.211271 -0.0680844 -3.81856 0.0025 0.943684 0.922076 2.44275 0.00529838 115 4 1 7.47342e-07 
-0.208631 -0.0597822 -3.5689 0.0025 0.950388 0.931253 2.44968 0.00526101 116 4 1 6.19459e-07 
-0.20601 -0.0518616 -3.55346 0.0025 0.956874 0.940165 2.45635 0.00522535 117 4 1 6.17046e-07 
-0.203406 -0.0440545 -3.38523 0.0025 0.963201 0.948874 2.46283 0.00519103 118 4 1 4.95985e-07 
-0.200819 -0.0367992 -3.25053 0.0025 0.969344 0.95738 2.46908 0.00515813 119 4 1 1.255e-06 
-0.198248 -0.0290063 -4.04882 0.0025 0.975892 0.966467 2.47575 0.00512352 120 4 1 1.48334e-06 
-0.195695 -0.0198628 -4.21206 0.0025 0.982953 0.9762 2.48296 0.00508671 121 4 1 -6.41168e-07 
-0.193161 -0.0126484 -2.29518 0.0025 0.988842 0.984358 2.48886 0.00505642 122 4 1 -1.00412e-06 
-0.190638 -0.00844885 -2.00434 0.0025 0.993349 0.990771 2.4933 0.00503348 123 4 1 2.51184e-06 
-0.188127 -0.00127424 -4.97905 0.0025 0.999488 0.999402 2.49952 0.00500256 124 4 1 2.70369e-06 
-0.185636 0.0097178 -4.91164 0.0025 1.00729 1.01015 2.50743 0.0049638 125 4 1 -2.64487e-06 
-0.183163 0.0156283 -0.815326 0.0025 1.01218 1.01695 2.51223 0.00493982 126 4 1 -3.13101e-06 
-0.180696 0.015411 0.409752 0.0025 1.01367 1.01928 2.51356 0.00493255 127 4 1 2.56078e-06 
-0.178231 0.0195357 -4.24815 0.0025 1.01721 1.0243 2.51715 0.00491538 128 4 1 2.13757e-06 
-0.175781 0.0278161 -2.98998 0.0025 1.02258 1.03165 2.52257 0.00488957 129 4 1 -3.05082e-06 
-0.173341 0.0300029 0.0952155 0.0025 1.0248 1.03477 2.5247 0.00487901 130 3 1 -2.52916e-06 
-0.170902 0.0288018 0.8662 0.0025 1.02392 1.03363 2.5238 0.00488317 131 4 1 -7.69507e-07 
-0.168458 0.0265735 1.18568 0.0025 1.02203 1.03097 2.52192 0.00489224 132 4 1 -2.23579e-07 
-0.166009 0.023942 1.31839 0.0025 1.01977 1.02779 2.51968 0.00490307 133 4 1 -1.09469e-08 
-0.163555 0.0211509 1.36706 0.0025 1.01739 1.02444 2.51732 0.00491454 134 4 1 9.23416e-08 
-0.161095 0.0183277 1.36494 0.0025 1.015 1.02107 2.51495 0.00492612 135 4 1 1.56757e-07 
-0.158629 0.0155605 1.32389 0.0025 1.01267 1.0178 2.51264 0.00493743 136 4 1 2.03362e-07 
-0.156157 0.0129232 1.24911 0.0025 1.01047 1.01471 2.51045 0.00494817 137 4 1 2.37985e-07 
-0.153681 0.0104813 1.14437 0.0025 1.00846 1.01187 2.50844 0.00495808 138 4 1 2.60131e-07 
-0.151199 0.00828941 1.01563 0.0025 1.00666 1.00935 2.50664 0.00496693 139 4 1 2.68075e-07 
-0.148714 0.00638601 0.871558 0.0025 1.00511 1.00717 2.5051 0.00497459 140 4 1 2.61405e-07 
-0.146225 0.00478886 0.722468 0.0025 1.00382 1.00536 2.50381 0.00498099 141 4 1 2.41929e-07 
-0.143733 0.00349445 0.578389 0.0025 1.00278 1.0039 2.50277 0.00498615 142 4 1 2.1322e-07 
-0.141239 0.00248099 0.447391 0.0025 1.00197 1.00276 2.50196 0.00499019 143 4 1 1.79581e-07 
-0.138743 0.00171387 0.334634 0.0025 1.00136 1.0019 2.50135 0.00499323 144 4 1 1.45024e-07 
-0.136245 0.00115201 0.242255 0.0025 1.00091 1.00128 2.50091 0.00499546 145 4 1 1.12628e-07 
-0.133747 0.000753444 0.169898 0.0025 1.00059 1.00084 2.50059 0.00499703 146 4 1 8.43227e-08 
-0.131248 0.000479381 0.115512 0.0025 1.00038 1.00053 2.50038 0.00499811 147 4 1 6.09745e-08 
-0.128749 0.000296605 0.0761709 0.0025 1.00023 1.00033 2.50023 0.00499883 148 4 1 4.2643e-08 
-0.126249 0.000178349 0.0487232 0.0025 1.00014 1.0002 2.50014 0.0049993 149 4 1 2.88681e-08 
-0.12375 0.000104123 0.0302257 0.0025 1.00008 1.00012 2.50008 0.00499959 150 4 1 1.89254e-08 
-0.12125 5.89453e-05 0.0181742 0.0025 1.00005 1.00007 2.50005 0.00499977 151 4 1 1.2015e-08 
-0.11875 3.23021e-05 0.0105811 0.0025 1.00003 1.00004 2.50003 0.00499987 152 4 1 7.38376e-09 
-0.11625 1.70968e-05 0.00595603 0.0025 1.00001 1.00002 2.50001 0.00499993 153 4 1 4.38872e-09 
-0.11375 8.71403e-06 0.00323474 0.0025 1.00001 1.00001 2.50001 0.00499997 154 4 1 2.51962e-09 
-0.11125 4.26033e-06 0.00169029 0.0025 1 1 2.5 0.00499998 155 4 1 1.39462e-09 
-0.10875 1.98739e-06 0.000846601 0.0025 1 1 2.5 0.00499999 156 4 1 7.42295e-10 
-0.10625 8.7802e-07 0.000404308 0.0025 1 1 2.5 0.005 157 4 1 3.78585e-10 
-0.10375 3.63377e-07 0.00018273 0.0025 1 1 2.5 0.005 158 4 1 1.84114e-10 
-0.10125 1.38481e-07 7.7282e-05 0.0025 1 1 2.5 0.005 159 4 1 8.47786e-11 
-0.09875 4.71777e-08 3.00326e-05 0.0025 1 1 2.5 0.005 160 4 1 3.65746e-11 
-0.09625 1.35425e-08 1.03685e-05 0.0025 1 1 2.5 0.005 161 4 1 1.45334e-11 
-0.09375 2.79345e-09 2.95173e-06 0.0025 1 1 2.5 0.005 162 4 1 5.15279e-12 
-0.09125 1.3143e-10 5.87581e-07 0.0025 1 1 2.5 0.005 163 4 1 1.5823e-12 
-0.08875 -5.42496e-11 -2.11302e-07 0.0025 1 1 2.5 0.005 164 5 1 2.79084e-13 
-0.08625 1.80181e-10 -5.23128e-08 0.0025 1 1 2.5 0.005 165 4 1 -1.03269e-13 
-0.08375 1.77082e-10 2.08931e-08 0.0025 1 1 2.5 0.005 166 3 1 -3.65013e-14 
-0.08125 1.17208e-10 3.22241e-08 0.0025 1 1 2.5 0.005 167 4 1 4.40821e-15 
-0.07875 6.34484e-11 2.35845e-08 0.0025 1 1 2.5 0.005 168 4 1 1.25002e-14 
-0.07625 2.95646e-11 1.35014e-08 0.0025 1 1 2.5 0.005 169 4 1 1.01274e-14 
-0.07375 1.19093e-11 6.52022e-09 0.0025 1 1 2.5 0.005 170 4 1 6.09894e-15 
-0.07125 4.04639e-12 2.69119e-09 0.0025 1 1 2.5 0.005 171 4 1 3.00524e-15 
-0.06875 1.06732e-12 9.25525e-10 0.0025 1 1 2.5 0.005 172 4 1 1.30527e-15 
-0.06625 1.5167e-13 2.35048e-10 0.0025 1 1 2.5 0.005 173 4 1 4.40181e-16 
-0.06375 -1.53342e-14 1.97815e-11 0.0025 1 1 2.5 0.005 174 4 1 1.1795e-16 
-0.06125 -6.86251e-15 -2.34195e-11 0.0025 1 1 2.5 0.005 175 5 1 4.83169e-17 
-0.05875 1.75593e-14 -4.77485e-12 0.0025 1 1 2.5 0.005 176 3 1 -4.40536e-17 
-0.05625 1.57769e-14 5.45697e-12 0.0025 1 1 2.5 0.005 177 4 1 3.90799e-18 
-0.05375 6.82444e-15 7.95808e-13 0.0025 1 1 2.5 0.005 178 4 1 1.06581e-18 
-0.05125 3.01483e-15 3.97904e-12 0.0025 1 1 2.5 0.005 179 4 1 3.55271e-18 
-0.04875 2.47129e-16 1.13687e-13 0.0025 1 1 2.5 0.005 180 5 1 -2.13163e-18 
-0.04625 -1.33088e-15 -2.27374e-13 0.0025 1 1 2.5 0.005 181 5 1 3.19744e-18 
-0.04375 -2.10839e-15 -1.13687e-13 0.0025 1 1 2.5 0.005 182 5 1 -7.4607e-18 
-0.04125 -1.06765e-15 2.27374e-13 0.0025 1 1 2.5 0.005 183 5 1 3.55271e-19 
-0.03875 -1.42803e-15 3.41061e-13 0.0025 1 1 2.5 0.005 184 5 1 -4.26326e-18 
-0.03625 8.31624e-17 -2.84217e-13 0.0025 1 1 2.5 0.005 185 4 1 -6.39488e-18 
-0.03375 -8.23221e-16 -2.27374e-13 0.0025 1 1 2.5 0.005 186 4 1 -8.17124e-18 
-0.03125 2.20649e-15 2.07076e-26 0.0025 1 1 2.5 0.005 187 3 1 4.68958e-17 
-0.02875 -1.36016e-17 5.68434e-14 0.0025 1 1 2.5 0.005 188 4 1 -3.94351e-17 
-0.02625 -6.06728e-16 5.68434e-14 0.0025 1 1 2.5 0.005 189 5 1 9.59233e-18 
-0.02375 -1.40219e-15 -1.93271e-27 0.0025 1 1 2.5 0.005 190 3 1 -2.84217e-18 
-0.02125 -2.06052e-15 -5.68434e-14 0.0025 1 1 2.5 0.005 191 4 1 5.68434e-18 
-0.01875 1.27395e-16 5.68434e-14 0.0025 1 1 2.5 0.005 192 5 1 -8.52651e-18 
-0.01625 -2.28598e-15 -1.26218e-27 0.0025 1 1 2.5 0.005 193 4 1 3.19744e-18 
-0.01375 7.69791e-16 5.68434e-14 0.0025 1 1 2.5 0.005 194 3 1 2.84217e-18 
-0.01125 5.36543e-17 1.17343e-27 0.0025 1 1 2.5 0.005 195 4 1 -1.77636e-18 
-0.00875 -1.00264e-15 -2.07076e-28 0.0025 1 1 2.5 0.005 196 4 1 1.2326e-33 
-0.00625 7.57222e-16 3.41061e-13 0.0025 1 1 2.5 0.005 197 4 1 -3.55271e-19 
-0.00375 2.15867e-16 2.27374e-13 0.0025 1 1 2.5 0.005 198 4 1 7.10543e-19 
-0.00125 1.13325e-15 -1.7053e-13 0.0025 1 1 2.5 0.005 199 4 1 1.2326e-33 
0.00125 1.21395e-15 4.54747e-13 0.0025 1 1 2.5 0.005 200 4 1 7.10543e-19 
0.00375 1.39494e-15 3.41061e-13 0.0025 1 1 2.5 0.005 201 5 1 1.77636e-18 
0.00625 6.26793e-16 -4.54747e-13 0.0025 1 1 2.5 0.005 202 5 1 3.55271e-19 
0.00875 1.03511e-15 -1.13687e-13 0.0025 1 1 2.5 0.005 203 3 1 -1.42109e-18 
0.01125 2.5778e-16 2.27374e-13 0.0025 1 1 2.5 0.005 204 5 1 2.4869e-18 
0.01375 2.12574e-15 -5.11591e-13 0.0025 1 1 2.5 0.005 205 5 1 -4.61853e-18 
0.01625 2.28375e-15 1.7053e-13 0.0025 1 1 2.5 0.005 206 4 1 -1.06581e-18 
0.01875 1.0816e-15 2.27374e-13 0.0025 1 1 2.5 0.005 207 4 1 1.06581e-18 
0.02125 1.41696e-15 -3.41061e-13 0.0025 1 1 2.5 0.005 208 4 1 -3.55271e-18 
0.02375 1.93388e-15 3.55973e-27 0.0025 1 1 2.5 0.005 209 3 1 1.38556e-17 
0.02625 2.46006e-15 2.84217e-13 0.0025 1 1 2.5 0.005 210 5 1 -1.98952e-17 
0.02875 3.23713e-15 -2.27374e-13 0.0025 1 1 2.5 0.005 211 4 1 8.17124e-18 
0.03125 1.66518e-15 8.52651e-13 0.0025 1 1 2.5 0.005 212 3 1 1.59872e-17 
0.03375 3.76781e-15 -2.04636e-12 0.0025 1 1 2.5 0.005 213 4 1 -8.17124e-18 
0.03625 3.25019e-15 1.3074e-12 0.0025 1 1 2.5 0.005 214 5 1 -1.88294e-17 
0.03875 2.53192e-15 2.84217e-13 0.0025 1 1 2.5 0.005 215 4 1 2.06057e-17 
0.04125 8.73712e-16 -2.27374e-13 0.0025 1 1 2.5 0.005 216 4 1 -9.9476e-18 
0.04375 8.40955e-16 -1.13687e-13 0.0025 1 1 2.5 0.005 217 4 1 -9.23706e-18 
0.04625 1.30583e-15 -1.13687e-13 0.0025 1 1 2.5 0.005 218 3 1 1.49214e-17 
0.04875 7.6284e-16 -5.68434e-14 0.0025 1 1 2.5 0.005 219 4 1 -7.81597e-18 
0.05125 -7.57093e-17 -1.7053e-13 0.0025 1 1 2.5 0.005 220 4 1 -6.75016e-18 
0.05375 1.48684e-15 -1.47793e-12 0.0025 1 1 2.5 0.005 221 3 1 1.59872e-17 
0.05625 -7.40307e-15 -6.0254e-12 0.0025 1 1 2.5 0.005 222 5 1 1.74083e-17 
0.05875 -1.2875e-14 -6.82121e-13 0.0025 1 1 2.5 0.005 223 4 1 -1.1191e-16 
0.06125 4.39759e-16 2.63753e-11 0.0025 1 1 2.5 0.005 224 4 1 1.06581e-16 
0.06375 3.63601e-14 -2.03499e-11 0.0025 1 1 2.5 0.005 225 4 1 1.16174e-16 
0.06625 -1.549e-13 -2.29079e-10 0.0025 1 1 2.5 0.005 226 4 1 4.22773e-16 
