# Time [s]: 0.264155
# Columns: pos [m], vel [m/s], acc [m/s^2], mass [kg], dens [kg/m^3], pres [Pa], ene [J/kg], sml [m], id, neighbor, alpha, gradh, ...additional?
1.32442 -0.67312 0.000480653 0.0025 0.511037 0.432711 2.15248 0.00978403 0 4 1 -0.000134225 
1.32921 -0.673124 0.000570418 0.0025 0.536893 0.426173 1.95002 0.00931285 1 4 1 0.000179249 
1.33374 -0.673128 0.000661165 0.0025 0.548221 0.430841 1.96848 0.0091204 2 3 1 -1.90587e-05 
1.33833 -0.673132 0.000757065 0.0025 0.545955 0.429176 1.96462 0.00915826 3 5 1 3.48568e-06 
1.3429 -0.673136 0.000858527 0.0025 0.546352 0.429329 1.96455 0.00915161 4 4 1 -1.3895e-07 
1.34748 -0.673141 0.000967971 0.0025 0.546361 0.429297 1.96432 0.00915146 5 4 1 1.4343e-07 
1.35205 -0.673145 0.00108387 0.0025 0.546382 0.429294 1.96426 0.00915111 6 4 1 -3.82268e-09 
1.35663 -0.67315 0.0011985 0.0025 0.546393 0.429289 1.96419 0.00915092 7 4 1 7.92721e-09 
1.3612 -0.673155 0.0013016 0.0025 0.546405 0.429285 1.96413 0.00915073 8 4 1 4.48354e-09 
1.36578 -0.67316 0.00138939 0.0025 0.546414 0.429281 1.96408 0.00915057 9 4 1 5.22618e-09 
1.37035 -0.673166 0.00147139 0.0025 0.546423 0.429278 1.96404 0.00915043 10 4 1 -2.48326e-09 
1.37493 -0.673172 0.00156657 0.0025 0.54643 0.429274 1.96399 0.0091503 11 4 1 4.44955e-09 
1.37951 -0.673179 0.00168856 0.0025 0.546437 0.42927 1.96395 0.00915018 12 4 1 2.51071e-09 
1.38408 -0.673186 0.00183225 0.0025 0.546442 0.429265 1.96391 0.0091501 13 4 1 3.18386e-09 
1.38866 -0.673194 0.00197705 0.0025 0.546446 0.42926 1.96387 0.00915003 14 4 1 1.72589e-09 
1.39323 -0.673202 0.00210779 0.0025 0.546449 0.429255 1.96384 0.00914998 15 4 1 -1.95565e-09 
1.39781 -0.673211 0.00223432 0.0025 0.546451 0.429249 1.9638 0.00914994 16 4 1 4.52216e-09 
1.40238 -0.673221 0.00238762 0.0025 0.546453 0.429243 1.96377 0.00914993 17 4 1 1.03038e-09 
1.40696 -0.673233 0.00259203 0.0025 0.546453 0.429236 1.96374 0.00914992 18 3 1 -1.76213e-09 
1.41153 -0.673244 0.00284043 0.0025 0.546452 0.429229 1.96371 0.00914993 19 4 1 2.03225e-09 
1.41611 -0.673257 0.00310039 0.0025 0.546451 0.429222 1.96368 0.00914996 20 4 1 4.66106e-10 
1.42068 -0.673271 0.00334824 0.0025 0.546448 0.429213 1.96365 0.00915 21 4 1 4.91314e-10 
1.42526 -0.673287 0.00359711 0.0025 0.546444 0.429204 1.96362 0.00915007 22 4 1 3.23928e-10 
1.42983 -0.673303 0.00388924 0.0025 0.546439 0.429194 1.9636 0.00915015 23 4 1 -1.02943e-09 
1.43441 -0.673322 0.00426058 0.0025 0.546434 0.429184 1.96357 0.00915024 24 4 1 4.21354e-10 
1.43898 -0.673342 0.00471275 0.0025 0.546427 0.429172 1.96354 0.00915036 25 4 1 -5.224e-10 
1.44356 -0.673364 0.00521642 0.0025 0.546418 0.429159 1.96351 0.0091505 26 4 1 -1.76507e-09 
1.44813 -0.673388 0.00573851 0.0025 0.546408 0.429144 1.96348 0.00915066 27 4 1 -2.65985e-10 
1.45271 -0.673415 0.00627127 0.0025 0.546397 0.429129 1.96345 0.00915085 28 4 1 -7.09783e-10 
1.45728 -0.673444 0.00684889 0.0025 0.546384 0.429111 1.96341 0.00915107 29 4 1 -2.5296e-09 
1.46186 -0.673477 0.00754401 0.0025 0.54637 0.429092 1.96338 0.00915132 30 4 1 -1.62488e-09 
1.46643 -0.673514 0.00843293 0.0025 0.546353 0.429071 1.96334 0.00915159 31 4 1 -6.97489e-10 
1.47101 -0.673555 0.00953187 0.0025 0.546334 0.429047 1.9633 0.00915192 32 4 1 -4.06933e-09 
1.47558 -0.673599 0.0107547 0.0025 0.546311 0.42902 1.96326 0.00915229 33 4 1 -4.39951e-09 
1.48016 -0.673649 0.0119756 0.0025 0.546286 0.42899 1.96321 0.00915271 34 4 1 -1.59822e-09 
1.48474 -0.673705 0.013196 0.0025 0.546258 0.428957 1.96316 0.00915319 35 4 1 -4.15344e-09 
1.48931 -0.67377 0.0146398 0.0025 0.546226 0.428919 1.96311 0.00915373 36 4 1 -5.54811e-09 
1.49389 -0.673843 0.0165791 0.0025 0.54619 0.428877 1.96304 0.00915433 37 4 1 -4.46618e-09 
1.49847 -0.673924 0.0190279 0.0025 0.546148 0.42883 1.96298 0.00915502 38 4 1 -6.97281e-09 
-0.496954 -0.674015 0.0217213 0.0025 0.546101 0.428776 1.9629 0.00915582 39 4 1 -8.41457e-09 
-0.492375 -0.674116 0.0244382 0.0025 0.546047 0.428715 1.96281 0.00915672 40 4 1 -7.07931e-09 
-0.487797 -0.674231 0.0271817 0.0025 0.545986 0.428646 1.96272 0.00915774 41 4 1 -7.29142e-09 
-0.483218 -0.67436 0.0300557 0.0025 0.545918 0.428571 1.96261 0.00915888 42 4 1 -8.31286e-09 
-0.478638 -0.674505 0.0331749 0.0025 0.545844 0.428487 1.9625 0.00916013 43 4 1 -7.57011e-09 
-0.474058 -0.674664 0.0364911 0.0025 0.545763 0.428397 1.96238 0.00916149 44 4 1 -5.80169e-09 
-0.469476 -0.674834 0.0394912 0.0025 0.545676 0.4283 1.96225 0.00916295 45 4 1 -4.7375e-09 
-0.464895 -0.675012 0.041457 0.0025 0.545584 0.428198 1.96211 0.00916449 46 4 1 -6.67879e-10 
-0.460312 -0.675192 0.0417614 0.0025 0.545493 0.428097 1.96197 0.00916602 47 4 1 6.90867e-09 
-0.455729 -0.675365 0.0396641 0.0025 0.545406 0.428 1.96184 0.00916748 48 4 1 1.47214e-08 
-0.451144 -0.675523 0.0341978 0.0025 0.54533 0.427917 1.96173 0.00916875 49 4 1 2.50674e-08 
-0.44656 -0.675651 0.025769 0.0025 0.545276 0.427856 1.96164 0.00916967 50 4 1 2.01027e-08 
-0.441975 -0.675719 0.0206878 0.0025 0.545239 0.427815 1.96158 0.00917029 51 5 1 5.55678e-08 
-0.43739 -0.67579 -0.00673455 0.0025 0.545248 0.427828 1.96159 0.00917014 52 4 1 1.49743e-07 
-0.432805 -0.675534 -0.0900032 0.0025 0.545379 0.427972 1.96178 0.00916793 53 4 1 1.66759e-07 
-0.428222 -0.675065 -0.112056 0.0025 0.545649 0.428273 1.96216 0.0091634 54 4 1 3.28932e-07 
-0.423641 -0.674258 -0.281085 0.0025 0.546184 0.428879 1.96292 0.00915442 55 4 1 8.64271e-07 
-0.419067 -0.672119 -0.710733 0.0025 0.547368 0.430192 1.96462 0.00913462 56 4 1 1.2806e-06 
-0.414507 -0.66809 -1.11655 0.0025 0.549426 0.432451 1.96757 0.00910041 57 4 1 1.28898e-06 
-0.409967 -0.662658 -1.38501 0.0025 0.552232 0.43554 1.97158 0.00905416 58 4 1 1.27786e-06 
-0.405452 -0.65624 -1.62059 0.0025 0.55564 0.439308 1.97643 0.00899864 59 4 1 1.54447e-06 
-0.400968 -0.648697 -1.94316 0.0025 0.559684 0.443797 1.98217 0.00893361 60 4 1 1.95334e-06 
-0.396519 -0.639753 -2.3041 0.0025 0.564467 0.449117 1.98893 0.00885791 61 4 1 2.31012e-06 
-0.39211 -0.629379 -2.66746 0.0025 0.570011 0.455302 1.99672 0.00877175 62 4 1 2.52474e-06 
-0.387747 -0.617769 -2.96739 0.0025 0.576238 0.462271 2.00541 0.00867698 63 4 1 2.47682e-06 
-0.383433 -0.605382 -3.12925 0.0025 0.582938 0.469802 2.01471 0.00857724 64 4 1 2.26214e-06 
-0.379169 -0.592725 -3.18899 0.0025 0.589871 0.477634 2.02426 0.00847643 65 4 1 2.08165e-06 
-0.374956 -0.58008 -3.21575 0.0025 0.596881 0.485593 2.03384 0.00837688 66 4 1 1.87837e-06 
-0.370792 -0.567632 -3.17219 0.0025 0.603852 0.493547 2.04331 0.00828017 67 4 1 1.68769e-06 
-0.366675 -0.555527 -3.12263 0.0025 0.610705 0.501404 2.05255 0.00818725 68 4 1 1.55431e-06 
-0.362604 -0.5438 -3.06109 0.0025 0.617415 0.509131 2.06154 0.00809829 69 4 1 1.44731e-06 
-0.358577 -0.532442 -3.00714 0.0025 0.623974 0.516717 2.07027 0.00801316 70 4 1 1.34961e-06 
-0.354591 -0.521426 -2.94172 0.0025 0.630382 0.524162 2.07874 0.0079317 71 4 1 1.29157e-06 
-0.350645 -0.510773 -2.90192 0.0025 0.63666 0.531485 2.08699 0.00785349 72 4 1 1.288e-06 
-0.346737 -0.500301 -2.88108 0.0025 0.642852 0.538738 2.09509 0.00777784 73 4 1 1.3246e-06 
-0.342867 -0.489995 -2.89543 0.0025 0.649017 0.545987 2.1031 0.00770396 74 4 1 1.40779e-06 
-0.339033 -0.479687 -2.94614 0.0025 0.655226 0.553318 2.11112 0.00763095 75 4 1 1.53142e-06 
-0.335236 -0.46922 -3.04437 0.0025 0.661559 0.56082 2.11925 0.00755791 76 4 1 1.60443e-06 
-0.331475 -0.458603 -3.12097 0.0025 0.668043 0.568531 2.12754 0.00748454 77 4 1 1.66193e-06 
-0.327751 -0.447783 -3.22517 0.0025 0.674688 0.576464 2.13597 0.00741083 78 4 1 1.72063e-06 
-0.324064 -0.436768 -3.31886 0.0025 0.681502 0.584628 2.14458 0.00733674 79 4 1 1.69615e-06 
-0.320414 -0.425619 -3.37362 0.0025 0.68844 0.592974 2.15328 0.0072628 80 4 1 1.64676e-06 
-0.316801 -0.414481 -3.41132 0.0025 0.695452 0.601445 2.16202 0.00718957 81 4 1 1.6202e-06 
-0.313224 -0.403334 -3.44808 0.0025 0.702515 0.610013 2.17078 0.00711729 82 4 1 1.60459e-06 
-0.309684 -0.392223 -3.48344 0.0025 0.70962 0.618666 2.17953 0.00704603 83 4 1 1.53806e-06 
-0.306178 -0.381191 -3.47723 0.0025 0.716731 0.627361 2.18824 0.00697612 84 4 1 1.51139e-06 
-0.302707 -0.370265 -3.50882 0.0025 0.72384 0.636089 2.1969 0.0069076 85 4 1 1.46691e-06 
-0.29927 -0.359408 -3.49213 0.0025 0.730937 0.644836 2.20549 0.00684053 86 4 1 1.41731e-06 
-0.295867 -0.348731 -3.50092 0.0025 0.738006 0.653583 2.21399 0.00677502 87 4 1 1.42069e-06 
-0.292495 -0.338085 -3.51702 0.0025 0.745068 0.662356 2.22244 0.00671079 88 4 1 1.38485e-06 
-0.289156 -0.327583 -3.51621 0.0025 0.752119 0.671147 2.23083 0.00664788 89 4 1 1.36915e-06 
-0.285847 -0.317162 -3.53801 0.0025 0.759162 0.67996 2.23916 0.00658621 90 4 1 1.31721e-06 
-0.282569 -0.306852 -3.51484 0.0025 0.766179 0.688775 2.24741 0.00652589 91 4 1 1.29211e-06 
-0.279321 -0.296657 -3.53524 0.0025 0.773171 0.697591 2.25559 0.00646688 92 4 1 1.2734e-06 
-0.276102 -0.286531 -3.52349 0.0025 0.780145 0.706415 2.26371 0.00640906 93 4 1 1.24612e-06 
-0.272912 -0.276573 -3.53655 0.0025 0.787099 0.715247 2.27176 0.00635244 94 4 1 1.26675e-06 
-0.26975 -0.266572 -3.56829 0.0025 0.794062 0.724119 2.27977 0.00629674 95 4 1 1.18716e-06 
-0.266615 -0.256761 -3.5226 0.0025 0.800995 0.732985 2.28771 0.00624224 96 4 1 1.19099e-06 
-0.263507 -0.247054 -3.57526 0.0025 0.80791 0.741861 2.29559 0.0061888 97 4 1 1.19381e-06 
-0.260426 -0.237329 -3.56347 0.0025 0.81483 0.750769 2.30344 0.00613625 98 4 1 1.07919e-06 
-0.257371 -0.22784 -3.51303 0.0025 0.821688 0.759631 2.31117 0.00608504 99 4 1 1.1421e-06 
-0.254341 -0.218412 -3.5907 0.0025 0.828542 0.768519 2.31886 0.0060347 100 4 1 1.16023e-06 
-0.251336 -0.208897 -3.58659 0.0025 0.835424 0.777466 2.32655 0.00598498 101 4 1 1.0148e-06 
-0.248356 -0.199665 -3.51584 0.0025 0.84224 0.786362 2.33412 0.00593655 102 4 1 1.09377e-06 
-0.245399 -0.190451 -3.61994 0.0025 0.849056 0.795289 2.34166 0.00588889 103 4 1 1.11636e-06 
-0.242467 -0.181168 -3.60537 0.0025 0.855908 0.804281 2.3492 0.00584175 104 4 1 9.07792e-07 
-0.239558 -0.172188 -3.48564 0.0025 0.862652 0.81317 2.35658 0.00579608 105 4 1 9.97856e-07 
-0.236671 -0.163345 -3.59622 0.0025 0.86937 0.822055 2.36391 0.00575129 106 4 1 1.12475e-06 
-0.233806 -0.154269 -3.65548 0.0025 0.876177 0.831073 2.3713 0.00570661 107 4 1 9.07211e-07 
-0.230964 -0.145451 -3.5154 0.0025 0.882916 0.840033 2.37857 0.00566305 108 4 1 8.57835e-07 
-0.228143 -0.136879 -3.53212 0.0025 0.889559 0.848906 2.38571 0.00562076 109 4 1 1.13411e-06 
-0.225343 -0.128069 -3.74996 0.0025 0.89633 0.857961 2.39296 0.0055783 110 4 1 9.40126e-07 
-0.222565 -0.119209 -3.55605 0.0025 0.903093 0.867023 2.40017 0.00553653 111 4 1 6.07364e-07 
-0.219807 -0.111049 -3.38035 0.0025 0.9096 0.875795 2.40706 0.00549692 112 4 1 9.96116e-07 
-0.217068 -0.102728 -3.69706 0.0025 0.916172 0.884676 2.41401 0.00545749 113 4 1 1.12238e-06 
-0.214349 -0.0939986 -3.70839 0.0025 0.922933 0.893809 2.42113 0.00541751 114 4 1 6.11938e-07 
-0.21165 -0.0857945 -3.38086 0.0025 0.929478 0.902696 2.42797 0.00537937 115 4 1 7.04069e-07 
-0.20897 -0.077936 -3.52483 0.0025 0.935887 0.91144 2.43465 0.00534253 116 4 1 1.1124e-06 
-0.206308 -0.069582 -3.76126 0.0025 0.942515 0.920481 2.44154 0.00530495 117 4 1 8.25602e-07 
-0.203665 -0.0613105 -3.54846 0.0025 0.949142 0.929543 2.44839 0.00526792 118 4 1 5.99683e-07 
-0.20104 -0.0534792 -3.49724 0.0025 0.955562 0.938364 2.455 0.00523253 119 4 1 7.04552e-07 
-0.198432 -0.0456732 -3.48698 0.0025 0.961887 0.947062 2.46149 0.00519812 120 4 1 4.10692e-07 
-0.195841 -0.0383334 -3.11266 0.0025 0.967957 0.955443 2.46768 0.00516552 121 4 1 6.97062e-07 
-0.193266 -0.0312956 -3.47286 0.0025 0.974032 0.963888 2.47385 0.0051333 122 4 1 1.69743e-06 
-0.190708 -0.0227867 -4.391 0.0025 0.980855 0.973331 2.48081 0.00509759 123 4 1 5.87695e-07 
-0.188169 -0.0141205 -3.347 0.0025 0.987497 0.982482 2.48754 0.0050633 124 4 1 -1.52115e-06 
-0.185645 -0.00902495 -1.48398 0.0025 0.992284 0.989204 2.49227 0.00503888 125 4 1 4.29392e-07 
-0.18313 -0.00450036 -3.21436 0.0025 0.996979 0.995901 2.49695 0.00501515 126 4 1 3.60217e-06 
-0.18063 0.00506711 -5.65818 0.0025 1.00418 1.00591 2.50428 0.00497917 127 4 1 2.30222e-07 
-0.178151 0.014526 -2.87267 0.0025 1.01102 1.0153 2.51114 0.00494551 128 4 1 -4.01747e-06 
-0.175684 0.0166533 0.679305 0.0025 1.01369 1.01916 2.51363 0.00493247 129 4 1 -4.20197e-07 
-0.173218 0.0169689 -1.88887 0.0025 1.0155 1.02191 2.51539 0.00492367 130 4 1 3.33417e-06 
-0.17076 0.0241913 -4.20826 0.0025 1.02017 1.02836 2.52015 0.00490113 131 4 1 -8.67974e-07 
-0.168317 0.0293083 -0.862703 0.0025 1.02398 1.03359 2.52392 0.00488292 132 4 1 -3.19412e-06 
-0.165877 0.0291336 0.526342 0.0025 1.02421 1.03399 2.52409 0.00488182 133 3 1 -1.3331e-06 
-0.163435 0.0273353 1.04071 0.0025 1.02269 1.0319 2.52258 0.00488906 134 4 1 -4.15118e-07 
-0.160988 0.0249026 1.24439 0.0025 1.0206 1.02896 2.52051 0.00489908 135 4 1 -1.01623e-07 
-0.158536 0.0222033 1.33605 0.0025 1.01829 1.02571 2.51822 0.0049102 136 4 1 4.53422e-08 
-0.156078 0.0194126 1.35693 0.0025 1.01592 1.02237 2.51586 0.00492165 137 4 1 1.28118e-07 
-0.153614 0.0166401 1.33221 0.0025 1.01358 1.01908 2.51354 0.004933 138 4 1 1.83597e-07 
-0.151145 0.0139682 1.27047 0.0025 1.01135 1.01594 2.51132 0.0049439 139 4 1 2.22842e-07 
-0.14867 0.011466 1.17757 0.0025 1.00927 1.01302 2.50925 0.00495406 140 4 1 2.4882e-07 
-0.146191 0.00919081 1.05926 0.0025 1.0074 1.01039 2.50738 0.00496327 141 4 1 2.61234e-07 
-0.143707 0.0071855 0.923164 0.0025 1.00576 1.00809 2.50575 0.00497136 142 4 1 2.59779e-07 
-0.14122 0.00547459 0.77853 0.0025 1.00437 1.00614 2.50436 0.00497823 143 4 1 2.4555e-07 
-0.138729 0.00406266 0.634954 0.0025 1.00323 1.00454 2.50323 0.00498388 144 4 1 2.21267e-07 
-0.136236 0.00293576 0.500843 0.0025 1.00233 1.00327 2.50233 0.00498837 145 4 1 1.90649e-07 
-0.133741 0.00206559 0.382269 0.0025 1.00164 1.0023 2.50163 0.00499183 146 4 1 1.57537e-07 
-0.131244 0.00141508 0.28253 0.0025 1.00112 1.00157 2.50112 0.00499441 147 4 1 1.25186e-07 
-0.128746 0.000943897 0.202367 0.0025 1.00074 1.00105 2.50074 0.00499628 148 4 1 9.58935e-08 
-0.126248 0.000612949 0.140574 0.0025 1.00048 1.00068 2.50048 0.00499759 149 4 1 7.09441e-08 
-0.123749 0.000387408 0.0947542 0.0025 1.0003 1.00043 2.5003 0.00499848 150 4 1 5.07662e-08 
-0.121249 0.000238208 0.0619934 0.0025 1.00019 1.00026 2.50019 0.00499906 151 4 1 3.51731e-08 
-0.11875 0.000142391 0.0393681 0.0025 1.00011 1.00016 2.50011 0.00499944 152 4 1 2.361e-08 
-0.11625 8.26624e-05 0.0242578 0.0025 1.00006 1.00009 2.50006 0.00499968 153 4 1 1.53578e-08 
-0.11375 4.65429e-05 0.0144932 0.0025 1.00004 1.00005 2.50004 0.00499982 154 4 1 9.67949e-09 
-0.11125 2.53716e-05 0.00838713 0.0025 1.00002 1.00003 2.50002 0.0049999 155 4 1 5.90799e-09 
-0.10875 1.33596e-05 0.00469373 0.0025 1.00001 1.00001 2.50001 0.00499995 156 4 1 3.48891e-09 
-0.10625 6.77456e-06 0.00253486 0.0025 1.00001 1.00001 2.50001 0.00499997 157 4 1 1.99069e-09 
-0.10375 3.29517e-06 0.00131728 0.0025 1 1 2.5 0.00499999 158 4 1 1.09532e-09 
-0.10125 1.52908e-06 0.000656155 0.0025 1 1 2.5 0.00499999 159 4 1 5.79625e-10 
-0.09875 6.71788e-07 0.000311609 0.0025 1 1 2.5 0.005 160 4 1 2.93938e-10 
-0.09625 2.76317e-07 0.000140009 0.0025 1 1 2.5 0.005 161 4 1 1.4213e-10 
-0.09375 1.04537e-07 5.88315e-05 0.0025 1 1 2.5 0.005 162 4 1 6.5058e-11 
-0.09125 3.52747e-08 2.26881e-05 0.0025 1 1 2.5 0.005 163 4 1 2.78858e-11 
-0.08875 9.97616e-09 7.75183e-06 0.0025 1 1 2.5 0.005 164 4 1 1.09968e-11 
-0.08625 1.9926e-09 2.16812e-06 0.0025 1 1 2.5 0.005 165 4 1 3.86544e-12 
-0.08375 6.03316e-11 4.099e-07 0.0025 1 1 2.5 0.005 166 4 1 1.16837e-12 
-0.08125 -2.66175e-11 -1.76478e-07 0.0025 1 1 2.5 0.005 167 5 1 1.87845e-13 
-0.07875 1.49156e-10 -3.46568e-08 0.0025 1 1 2.5 0.005 168 4 1 -8.48786e-14 
-0.07625 1.40609e-10 1.8776e-08 0.0025 1 1 2.5 0.005 169 3 1 -2.54317e-14 
-0.07375 9.1801e-11 2.56125e-08 0.0025 1 1 2.5 0.005 170 4 1 4.31868e-15 
-0.07125 4.93765e-11 1.85199e-08 0.0025 1 1 2.5 0.005 171 4 1 1.00357e-14 
-0.06875 2.29099e-11 1.05007e-08 0.0025 1 1 2.5 0.005 172 4 1 7.97371e-15 
-0.06625 9.20006e-12 5.0544e-09 0.0025 1 1 2.5 0.005 173 4 1 4.72262e-15 
-0.06375 3.12429e-12 2.08036e-09 0.0025 1 1 2.5 0.005 174 4 1 2.35332e-15 
-0.06125 8.2604e-13 7.09463e-10 0.0025 1 1 2.5 0.005 175 4 1 1.02602e-15 
-0.05875 1.20235e-13 1.81046e-10 0.0025 1 1 2.5 0.005 176 4 1 3.19389e-16 
-0.05625 -2.57754e-14 1.7792e-11 0.0025 1 1 2.5 0.005 177 4 1 1.02318e-16 
-0.05375 4.25342e-15 -2.05205e-11 0.0025 1 1 2.5 0.005 178 5 1 5.68434e-18 
-0.05125 1.1817e-14 -6.16298e-27 0.0025 1 1 2.5 0.005 179 3 1 -8.52651e-18 
-0.04875 8.70006e-15 1.02318e-12 0.0025 1 1 2.5 0.005 180 3 1 -1.42109e-18 
-0.04625 6.84391e-15 1.47793e-12 0.0025 1 1 2.5 0.005 181 4 1 1.84966e-31 
-0.04375 -4.6617e-16 3.75167e-12 0.0025 1 1 2.5 0.005 182 4 1 -1.06581e-18 
-0.04125 -5.46831e-17 -2.27374e-13 0.0025 1 1 2.5 0.005 183 5 1 1.06581e-18 
-0.03875 -3.45228e-16 -1.89327e-27 0.0025 1 1 2.5 0.005 184 5 1 -4.26326e-18 
-0.03625 -8.94884e-16 -1.7053e-13 0.0025 1 1 2.5 0.005 185 4 1 -6.39488e-18 
-0.03375 -1.90608e-15 -1.13687e-13 0.0025 1 1 2.5 0.005 186 4 1 -8.52651e-18 
-0.03125 2.31128e-15 2.07076e-26 0.0025 1 1 2.5 0.005 187 3 1 4.76064e-17 
-0.02875 1.08657e-16 3.48381e-26 0.0025 1 1 2.5 0.005 188 4 1 -3.97904e-17 
-0.02625 -5.36864e-16 5.68434e-14 0.0025 1 1 2.5 0.005 189 5 1 9.59233e-18 
-0.02375 -1.47206e-15 -1.93271e-27 0.0025 1 1 2.5 0.005 190 3 1 -2.84217e-18 
-0.02125 -2.27011e-15 -5.68434e-14 0.0025 1 1 2.5 0.005 191 4 1 5.68434e-18 
-0.01875 2.67133e-16 5.68434e-14 0.0025 1 1 2.5 0.005 192 5 1 -8.52651e-18 
-0.01625 -2.14627e-15 -1.26218e-27 0.0025 1 1 2.5 0.005 193 4 1 3.19744e-18 
-0.01375 1.0842e-15 5.68434e-14 0.0025 1 1 2.5 0.005 194 3 1 2.84217e-18 
-0.01125 4.02956e-16 1.13687e-13 0.0025 1 1 2.5 0.005 195 4 1 -1.77636e-18 
-0.00875 6.74083e-16 4.54747e-13 0.0025 1 1 2.5 0.005 196 4 1 3.55271e-19 
-0.00625 7.57324e-16 2.27374e-13 0.0025 1 1 2.5 0.005 197 4 1 7.10543e-19 
-0.00375 7.92018e-16 -3.97904e-13 0.0025 1 1 2.5 0.005 198 5 1 -7.10543e-19 
-0.00125 1.51755e-15 -5.68434e-14 0.0025 1 1 2.5 0.005 199 3 1 -1.42109e-18 
0.00125 1.09164e-15 1.7053e-13 0.0025 1 1 2.5 0.005 200 4 1 -7.10543e-19 
0.00375 1.25528e-15 -8.87469e-29 0.0025 1 1 2.5 0.005 201 5 1 -2.13163e-18 
0.00625 1.41271e-15 -1.7053e-13 0.0025 1 1 2.5 0.005 202 3 1 -7.10543e-19 
0.00875 1.36701e-15 3.97904e-13 0.0025 1 1 2.5 0.005 203 4 1 1.2326e-33 
0.01125 9.3861e-16 -5.11591e-13 0.0025 1 1 2.5 0.005 204 4 1 1.06581e-18 
0.01375 9.38353e-16 5.68434e-14 0.0025 1 1 2.5 0.005 205 4 1 -4.9738e-18 
0.01625 3.97725e-16 1.53477e-12 0.0025 1 1 2.5 0.005 206 4 1 -7.10543e-19 
0.01875 2.53091e-15 -1.19371e-12 0.0025 1 1 2.5 0.005 207 4 1 2.4869e-18 
0.02125 2.62218e-15 -9.66338e-13 0.0025 1 1 2.5 0.005 208 4 1 -4.9738e-18 
0.02375 8.1587e-16 5.68434e-13 0.0025 1 1 2.5 0.005 209 3 1 1.42109e-17 
0.02625 2.47771e-15 2.27374e-13 0.0025 1 1 2.5 0.005 210 5 1 -2.27374e-17 
0.02875 5.82157e-16 -1.13687e-12 0.0025 1 1 2.5 0.005 211 4 1 9.9476e-18 
0.03125 5.15834e-15 8.52651e-13 0.0025 1 1 2.5 0.005 212 3 1 1.66978e-17 
0.03375 2.42363e-15 9.66338e-13 0.0025 1 1 2.5 0.005 213 4 1 -1.13687e-17 
0.03625 9.09358e-16 1.7053e-13 0.0025 1 1 2.5 0.005 214 5 1 -7.81597e-18 
0.03875 3.24744e-15 -2.6148e-12 0.0025 1 1 2.5 0.005 215 3 1 1.63425e-17 
0.04125 3.42414e-15 1.25056e-12 0.0025 1 1 2.5 0.005 216 4 1 -1.1724e-17 
0.04375 1.1205e-15 6.82121e-13 0.0025 1 1 2.5 0.005 217 5 1 -5.68434e-18 
0.04625 4.67362e-16 -9.09495e-13 0.0025 1 1 2.5 0.005 218 4 1 1.63425e-17 
0.04875 -6.64374e-15 -5.74119e-12 0.0025 1 1 2.5 0.005 219 4 1 -4.26326e-18 
0.05125 -7.14914e-15 3.41061e-12 0.0025 1 1 2.5 0.005 220 3 1 -2.06057e-17 
0.05375 -1.16284e-16 1.65983e-11 0.0025 1 1 2.5 0.005 221 4 1 1.84741e-17 
0.05625 2.78454e-14 -1.25056e-11 0.0025 1 1 2.5 0.005 222 5 1 1.13332e-16 
0.05875 -1.15498e-13 -1.81558e-10 0.0025 1 1 2.5 0.005 223 4 1 2.53308e-16 
0.06125 -8.15786e-13 -7.12816e-10 0.0025 1 1 2.5 0.005 224 4 1 1.09956e-15 
0.06375 -3.11344e-12 -2.07791e-09 0.0025 1 1 2.5 0.005 225 4 1 2.34195e-15 
