# Time [s]: 0.266614
# Columns: pos [m], vel [m/s], acc [m/s^2], mass [kg], dens [kg/m^3], pres [Pa], ene [J/kg], sml [m], id, neighbor, alpha, gradh, ...additional?
1.32277 -0.673118 0.000478156 0.0025 0.511038 0.432712 2.15248 0.00978401 0 4 1 -0.000134225 
1.32755 -0.673122 0.000566128 0.0025 0.536894 0.426174 1.95002 0.00931283 1 4 1 0.00017925 
1.33209 -0.673126 0.000653915 0.0025 0.548223 0.430843 1.96848 0.00912038 2 3 1 -1.90587e-05 
1.33667 -0.67313 0.000747368 0.0025 0.545956 0.429177 1.96462 0.00915824 3 5 1 3.48569e-06 
1.34125 -0.673134 0.00084743 0.0025 0.546353 0.42933 1.96456 0.00915159 4 4 1 -1.38945e-07 
1.34582 -0.673138 0.000954354 0.0025 0.546362 0.429299 1.96432 0.00915144 5 4 1 1.43441e-07 
1.3504 -0.673143 0.00106307 0.0025 0.546383 0.429295 1.96426 0.00915108 6 4 1 -3.80128e-09 
1.35497 -0.673147 0.00116439 0.0025 0.546394 0.42929 1.96419 0.0091509 7 4 1 7.96165e-09 
1.35955 -0.673152 0.00125165 0.0025 0.546406 0.429287 1.96414 0.0091507 8 4 1 4.52179e-09 
1.36412 -0.673157 0.00132844 0.0025 0.546416 0.429283 1.96409 0.00915054 9 4 1 5.25265e-09 
1.3687 -0.673162 0.0014094 0.0025 0.546424 0.42928 1.96404 0.0091504 10 4 1 -2.47739e-09 
1.37328 -0.673168 0.00151018 0.0025 0.546432 0.429276 1.96399 0.00915026 11 4 1 4.44395e-09 
1.37785 -0.673175 0.00163358 0.0025 0.546439 0.429272 1.96395 0.00915015 12 4 1 2.51632e-09 
1.38243 -0.673182 0.00176563 0.0025 0.546444 0.429267 1.96391 0.00915006 13 4 1 3.21664e-09 
1.387 -0.673189 0.00188877 0.0025 0.546448 0.429263 1.96387 0.00914999 14 4 1 1.77685e-09 
1.39158 -0.673197 0.00200192 0.0025 0.546452 0.429258 1.96384 0.00914994 15 4 1 -1.91547e-09 
1.39615 -0.673206 0.0021267 0.0025 0.546454 0.429252 1.96381 0.0091499 16 4 1 4.53077e-09 
1.40073 -0.673216 0.00229 0.0025 0.546456 0.429246 1.96378 0.00914988 17 4 1 1.0193e-09 
1.4053 -0.673226 0.00249796 0.0025 0.546456 0.42924 1.96375 0.00914987 18 3 1 -1.7556e-09 
1.40988 -0.673238 0.00272874 0.0025 0.546456 0.429233 1.96371 0.00914987 19 4 1 2.0831e-09 
1.41445 -0.67325 0.00295457 0.0025 0.546454 0.429226 1.96369 0.00914989 20 4 1 5.48746e-10 
1.41903 -0.673263 0.00317229 0.0025 0.546452 0.429218 1.96366 0.00914993 21 4 1 5.64432e-10 
1.4236 -0.673278 0.00341105 0.0025 0.546449 0.429209 1.96363 0.00914999 22 4 1 3.5806e-10 
1.42817 -0.673294 0.00370871 0.0025 0.546444 0.4292 1.9636 0.00915006 23 4 1 -1.02246e-09 
1.43275 -0.673312 0.00408063 0.0025 0.546439 0.42919 1.96357 0.00915015 24 4 1 4.44516e-10 
1.43733 -0.673331 0.00450964 0.0025 0.546433 0.429178 1.96355 0.00915026 25 4 1 -4.44226e-10 
1.4419 -0.673352 0.0049632 0.0025 0.546425 0.429166 1.96352 0.00915039 26 4 1 -1.62619e-09 
1.44648 -0.673374 0.0054216 0.0025 0.546416 0.429152 1.96349 0.00915054 27 4 1 -9.74797e-11 
1.45105 -0.6734 0.00589961 0.0025 0.546405 0.429137 1.96346 0.00915072 28 4 1 -5.62476e-10 
1.45563 -0.673428 0.00645124 0.0025 0.546393 0.429121 1.96343 0.00915092 29 4 1 -2.44223e-09 
1.4602 -0.673459 0.0071484 0.0025 0.546379 0.429103 1.96339 0.00915115 30 4 1 -1.58235e-09 
1.46478 -0.673494 0.00803035 0.0025 0.546364 0.429083 1.96336 0.00915141 31 4 1 -6.07637e-10 
1.46935 -0.673532 0.00905324 0.0025 0.546346 0.42906 1.96332 0.00915172 32 4 1 -3.81226e-09 
1.47393 -0.673574 0.0101072 0.0025 0.546325 0.429035 1.96328 0.00915206 33 4 1 -3.95639e-09 
1.47851 -0.673621 0.0111362 0.0025 0.546302 0.429007 1.96323 0.00915246 34 4 1 -1.13678e-09 
1.48308 -0.673674 0.0122639 0.0025 0.546275 0.428976 1.96319 0.0091529 35 4 1 -3.89984e-09 
1.48766 -0.673735 0.0137387 0.0025 0.546245 0.428941 1.96313 0.0091534 36 4 1 -5.50457e-09 
1.49223 -0.673803 0.0156884 0.0025 0.546211 0.428901 1.96307 0.00915396 37 4 1 -4.34029e-09 
1.49681 -0.673879 0.0179724 0.0025 0.546173 0.428857 1.96301 0.00915461 38 4 1 -6.50471e-09 
-0.49861 -0.673963 0.020357 0.0025 0.546128 0.428806 1.96294 0.00915536 39 4 1 -7.68972e-09 
-0.494033 -0.674058 0.022772 0.0025 0.546077 0.428749 1.96286 0.00915621 40 4 1 -6.40705e-09 
-0.489454 -0.674166 0.0253207 0.0025 0.546021 0.428685 1.96277 0.00915716 41 4 1 -6.9457e-09 
-0.484875 -0.674288 0.0281647 0.0025 0.545957 0.428613 1.96267 0.00915822 42 4 1 -8.46676e-09 
-0.480296 -0.674425 0.0314104 0.0025 0.545887 0.428535 1.96256 0.0091594 43 4 1 -8.19812e-09 
-0.475716 -0.674576 0.0348758 0.0025 0.54581 0.428448 1.96244 0.0091607 44 4 1 -6.74295e-09 
-0.471135 -0.674738 0.0380606 0.0025 0.545726 0.428355 1.96232 0.00916211 45 4 1 -6.10829e-09 
-0.466554 -0.674911 0.0404475 0.0025 0.545636 0.428255 1.96218 0.00916361 46 4 1 -2.79238e-09 
-0.461972 -0.675089 0.0414502 0.0025 0.545545 0.428154 1.96205 0.00916515 47 4 1 4.02886e-09 
-0.457389 -0.675267 0.0403188 0.0025 0.545456 0.428055 1.96191 0.00916665 48 4 1 1.06356e-08 
-0.452805 -0.675435 0.0371677 0.0025 0.545374 0.427965 1.96179 0.00916801 49 4 1 1.6961e-08 
-0.448221 -0.675579 0.0319569 0.0025 0.545308 0.427891 1.96169 0.00916914 50 4 1 2.68744e-08 
-0.443636 -0.675675 0.01746 0.0025 0.545263 0.42784 1.96162 0.00916989 51 4 1 2.41971e-08 
-0.439051 -0.675756 0.0269241 0.0025 0.545239 0.427816 1.96158 0.0091703 52 5 1 9.60655e-08 
-0.434466 -0.675716 -0.0533139 0.0025 0.545294 0.427878 1.96166 0.00916937 53 4 1 1.71263e-07 
-0.429881 -0.675328 -0.104395 0.0025 0.54549 0.428093 1.96193 0.00916608 54 4 1 1.93271e-07 
-0.425299 -0.67477 -0.152898 0.0025 0.545845 0.428495 1.96244 0.0091601 55 4 1 5.21314e-07 
-0.420721 -0.67353 -0.442372 0.0025 0.546608 0.429351 1.96353 0.00914732 56 4 1 1.08056e-06 
-0.416152 -0.670576 -0.896896 0.0025 0.548155 0.431056 1.96574 0.00912151 57 4 1 1.32581e-06 
-0.4116 -0.6659 -1.24776 0.0025 0.550556 0.433692 1.96918 0.00908173 58 4 1 1.26139e-06 
-0.40707 -0.660044 -1.47943 0.0025 0.553626 0.437078 1.97356 0.00903137 59 4 1 1.33549e-06 
-0.402568 -0.653215 -1.73751 0.0025 0.557278 0.441124 1.97876 0.00897218 60 4 1 1.67276e-06 
-0.398098 -0.645129 -2.07246 0.0025 0.561592 0.445916 1.98487 0.00890326 61 4 1 2.07654e-06 
-0.393665 -0.635654 -2.43697 0.0025 0.566651 0.45155 1.992 0.00882377 62 4 1 2.3871e-06 
-0.389274 -0.62484 -2.77851 0.0025 0.572444 0.458021 2.00012 0.00873448 63 4 1 2.49054e-06 
-0.38493 -0.612949 -3.02021 0.0025 0.578836 0.465186 2.00902 0.00863803 64 4 1 2.36071e-06 
-0.380636 -0.6005 -3.13483 0.0025 0.585596 0.472799 2.01838 0.00853831 65 4 1 2.15708e-06 
-0.376392 -0.587944 -3.1788 0.0025 0.592518 0.480634 2.02788 0.00843856 66 4 1 1.96835e-06 
-0.372197 -0.575435 -3.17457 0.0025 0.599466 0.488537 2.03736 0.00834076 67 4 1 1.77802e-06 
-0.36805 -0.563216 -3.1322 0.0025 0.606343 0.496397 2.04667 0.00824616 68 4 1 1.61203e-06 
-0.36395 -0.551342 -3.07512 0.0025 0.613093 0.504148 2.05575 0.00815538 69 4 1 1.48575e-06 
-0.359895 -0.539846 -3.01595 0.0025 0.619694 0.511763 2.06457 0.0080685 70 4 1 1.39847e-06 
-0.355882 -0.52869 -2.96667 0.0025 0.626151 0.519242 2.07315 0.0079853 71 4 1 1.29756e-06 
-0.351909 -0.517894 -2.89522 0.0025 0.63246 0.526583 2.08148 0.00790563 72 4 1 1.2676e-06 
-0.347976 -0.507377 -2.87607 0.0025 0.638654 0.533818 2.0896 0.00782897 73 4 1 1.28332e-06 
-0.34408 -0.497064 -2.85908 0.0025 0.644786 0.541009 2.0976 0.00775451 74 4 1 1.31299e-06 
-0.340221 -0.48684 -2.87913 0.0025 0.650905 0.548213 2.10554 0.00768161 75 4 1 1.42932e-06 
-0.336398 -0.476599 -2.95625 0.0025 0.657097 0.55553 2.11352 0.00760923 76 4 1 1.52647e-06 
-0.332612 -0.466165 -3.03429 0.0025 0.663419 0.563028 2.12163 0.00753672 77 4 1 1.58857e-06 
-0.328861 -0.455587 -3.12445 0.0025 0.669889 0.570731 2.12988 0.00746392 78 4 1 1.65233e-06 
-0.325148 -0.444807 -3.22005 0.0025 0.676523 0.578658 2.13829 0.00739074 79 4 1 1.69198e-06 
-0.321471 -0.433841 -3.31107 0.0025 0.683314 0.586804 2.14685 0.00731728 80 4 1 1.65386e-06 
-0.31783 -0.42279 -3.35031 0.0025 0.690214 0.595113 2.1555 0.00724413 81 4 1 1.60891e-06 
-0.314226 -0.411742 -3.39317 0.0025 0.697177 0.603535 2.16417 0.00717178 82 4 1 1.59162e-06 
-0.310658 -0.40072 -3.42611 0.0025 0.704191 0.61205 2.17285 0.00710035 83 4 1 1.55886e-06 
-0.307126 -0.389704 -3.45131 0.0025 0.711235 0.620637 2.18151 0.00703003 84 4 1 1.49848e-06 
-0.303628 -0.378817 -3.44839 0.0025 0.718279 0.629258 2.19013 0.00696109 85 4 1 1.48081e-06 
-0.300164 -0.367981 -3.47938 0.0025 0.725322 0.637912 2.19869 0.00689349 86 4 1 1.42246e-06 
-0.296734 -0.357268 -3.45197 0.0025 0.732346 0.646576 2.20718 0.00682738 87 4 1 1.3976e-06 
-0.293337 -0.346693 -3.48144 0.0025 0.739348 0.655248 2.2156 0.00676271 88 4 1 1.39653e-06 
-0.289972 -0.336182 -3.48349 0.0025 0.74635 0.663951 2.22397 0.00669927 89 4 1 1.3494e-06 
-0.286637 -0.325802 -3.48761 0.0025 0.753334 0.672664 2.23227 0.00663716 90 4 1 1.33272e-06 
-0.283334 -0.315469 -3.49805 0.0025 0.760305 0.681393 2.2405 0.00657631 91 4 1 1.28513e-06 
-0.280061 -0.305282 -3.48353 0.0025 0.767249 0.690122 2.24867 0.00651679 92 4 1 1.28005e-06 
-0.276817 -0.295185 -3.51077 0.0025 0.774179 0.698863 2.25677 0.00645846 93 4 1 1.23083e-06 
-0.273602 -0.285173 -3.4754 0.0025 0.781081 0.707602 2.26479 0.00640138 94 4 1 1.23378e-06 
-0.270416 -0.27531 -3.52398 0.0025 0.787971 0.716357 2.27276 0.00634541 95 4 1 1.25068e-06 
-0.267257 -0.265422 -3.53075 0.0025 0.794878 0.72516 2.28071 0.00629027 96 4 1 1.1451e-06 
-0.264125 -0.255725 -3.48717 0.0025 0.801741 0.733941 2.28856 0.00623643 97 4 1 1.17682e-06 
-0.26102 -0.246096 -3.54907 0.0025 0.808593 0.742738 2.29637 0.00618358 98 4 1 1.16787e-06 
-0.257942 -0.236475 -3.52618 0.0025 0.815448 0.751564 2.30414 0.0061316 99 4 1 1.04578e-06 
-0.254889 -0.22708 -3.47423 0.0025 0.822233 0.760337 2.31178 0.006081 100 4 1 1.13493e-06 
-0.251861 -0.217733 -3.56974 0.0025 0.829026 0.769147 2.3194 0.00603118 101 4 1 1.13606e-06 
-0.248857 -0.208314 -3.54531 0.0025 0.835846 0.778015 2.32702 0.00598196 102 4 1 9.89632e-07 
-0.245878 -0.199176 -3.48768 0.0025 0.842595 0.786827 2.33451 0.00593405 103 4 1 1.07893e-06 
-0.242923 -0.190052 -3.58542 0.0025 0.84935 0.795675 2.34198 0.00588685 104 4 1 1.09989e-06 
-0.239992 -0.180852 -3.57897 0.0025 0.856143 0.804589 2.34946 0.00584015 105 4 1 8.88832e-07 
-0.237083 -0.171958 -3.45053 0.0025 0.862827 0.813401 2.35677 0.0057949 106 4 1 9.7621e-07 
-0.234197 -0.163205 -3.5656 0.0025 0.869483 0.822205 2.36403 0.00575054 107 4 1 1.10385e-06 
-0.231332 -0.154228 -3.61759 0.0025 0.876226 0.831138 2.37135 0.00570629 108 4 1 8.97996e-07 
-0.22849 -0.145441 -3.49414 0.0025 0.882907 0.840019 2.37856 0.00566311 109 4 1 8.24542e-07 
-0.225669 -0.136972 -3.47689 0.0025 0.889481 0.848801 2.38563 0.00562125 110 4 1 1.11159e-06 
-0.222869 -0.128267 -3.72113 0.0025 0.89618 0.857761 2.3928 0.00557924 111 4 1 9.65822e-07 
-0.22009 -0.119454 -3.55186 0.0025 0.902904 0.866769 2.39997 0.00553769 112 4 1 5.87172e-07 
-0.217331 -0.111328 -3.34286 0.0025 0.909366 0.875477 2.40682 0.00549834 113 4 1 9.23006e-07 
-0.214591 -0.10315 -3.62064 0.0025 0.915848 0.884239 2.41366 0.00545942 114 4 1 1.13767e-06 
-0.211872 -0.0944983 -3.70992 0.0025 0.922544 0.893284 2.42072 0.0054198 115 4 1 6.57328e-07 
-0.209172 -0.0862835 -3.38162 0.0025 0.929073 0.902143 2.42755 0.00538171 116 4 1 6.29033e-07 
-0.20649 -0.078523 -3.44491 0.0025 0.935415 0.910794 2.43416 0.00534522 117 4 1 1.06384e-06 
-0.203826 -0.0703042 -3.71645 0.0025 0.941947 0.919707 2.44095 0.00530816 118 4 1 8.76222e-07 
-0.201182 -0.0620634 -3.55425 0.0025 0.948533 0.928708 2.44776 0.0052713 119 4 1 5.85221e-07 
-0.198555 -0.0542847 -3.44862 0.0025 0.954917 0.937477 2.45434 0.00523606 120 4 1 7.17292e-07 
-0.195945 -0.0465109 -3.51391 0.0025 0.961217 0.946143 2.46081 0.00520174 121 4 1 4.63271e-07 
-0.193353 -0.0390676 -3.14439 0.0025 0.9673 0.954529 2.46701 0.00516903 122 4 1 4.61485e-07 
-0.190776 -0.0322277 -3.21167 0.0025 0.973211 0.962742 2.47301 0.00513763 123 4 1 1.53781e-06 
-0.188215 -0.0242464 -4.24116 0.0025 0.979779 0.971854 2.4797 0.00510319 124 4 1 1.16376e-06 
-0.185673 -0.0152374 -3.8406 0.0025 0.986639 0.981303 2.48668 0.00506771 125 4 1 -1.28049e-06 
-0.183148 -0.00923768 -1.67782 0.0025 0.991834 0.988543 2.49185 0.00504116 126 4 1 -5.43679e-07 
-0.180632 -0.00542778 -2.34197 0.0025 0.996087 0.99463 2.49604 0.00501964 127 4 1 3.20157e-06 
-0.178128 0.00268245 -5.38165 0.0025 1.00258 1.00371 2.50264 0.00498711 128 4 1 1.70353e-06 
-0.175645 0.0131237 -3.98228 0.0025 1.00996 1.01386 2.5101 0.00495068 129 4 1 -3.51847e-06 
-0.173177 0.0171115 -0.112145 0.0025 1.01369 1.01911 2.51368 0.00493246 130 4 1 -1.94197e-06 
-0.170712 0.0166982 -0.36811 0.0025 1.01509 1.0213 2.51497 0.00492566 131 4 1 2.9759e-06 
-0.168252 0.0222348 -4.17865 0.0025 1.01897 1.02671 2.51893 0.00490694 132 4 1 4.78353e-07 
-0.165805 0.028549 -1.59832 0.0025 1.02327 1.03261 2.52324 0.00488627 133 4 1 -3.11554e-06 
-0.163365 0.029165 0.3351 0.0025 1.02422 1.03399 2.52411 0.00488176 134 3 1 -1.73386e-06 
-0.160924 0.0276466 0.941225 0.0025 1.02296 1.03228 2.52285 0.00488776 135 4 1 -5.38039e-07 
-0.158478 0.0253447 1.19746 0.0025 1.02098 1.0295 2.52089 0.00489724 136 4 1 -1.56743e-07 
-0.156026 0.0227107 1.31137 0.0025 1.01873 1.02632 2.51865 0.00490809 137 4 1 1.41221e-08 
-0.153569 0.0199477 1.34873 0.0025 1.01637 1.02301 2.51631 0.00491945 138 4 1 1.10089e-07 
-0.151107 0.0171789 1.33368 0.0025 1.01404 1.01972 2.51399 0.00493079 139 4 1 1.71792e-07 
-0.148639 0.014494 1.27935 0.0025 1.01179 1.01656 2.51176 0.00494174 140 4 1 2.14493e-07 
-0.146165 0.0119652 1.19257 0.0025 1.00969 1.0136 2.50966 0.00495203 141 4 1 2.42754e-07 
-0.143687 0.00965162 1.07956 0.0025 1.00778 1.01092 2.50776 0.0049614 142 4 1 2.57391e-07 
-0.141204 0.00759832 0.947633 0.0025 1.0061 1.00856 2.50609 0.00496969 143 4 1 2.58373e-07 
-0.138717 0.00583282 0.80561 0.0025 1.00466 1.00655 2.50466 0.00497678 144 4 1 2.46648e-07 
-0.136227 0.00436337 0.662816 0.0025 1.00348 1.00488 2.50347 0.00498267 145 4 1 2.24588e-07 
-0.133734 0.00317984 0.527708 0.0025 1.00253 1.00355 2.50252 0.0049874 146 4 1 1.95615e-07 
-0.131239 0.00225717 0.406702 0.0025 1.00179 1.00251 2.50178 0.00499107 147 4 1 1.63433e-07 
-0.128743 0.00156057 0.303609 0.0025 1.00123 1.00173 2.50123 0.00499384 148 4 1 1.31322e-07 
-0.126246 0.00105087 0.219698 0.0025 1.00083 1.00117 2.50083 0.00499585 149 4 1 1.01719e-07 
-0.123747 0.000689168 0.154212 0.0025 1.00054 1.00076 2.50054 0.00499728 150 4 1 7.60977e-08 
-0.121248 0.000440065 0.105059 0.0025 1.00035 1.00049 2.50035 0.00499827 151 4 1 5.5067e-08 
-0.118749 0.000273497 0.0694902 0.0025 1.00022 1.0003 2.50021 0.00499892 152 4 1 3.85865e-08 
-0.116249 0.000165336 0.0446291 0.0025 1.00013 1.00018 2.50013 0.00499935 153 4 1 2.62004e-08 
-0.11375 9.71355e-05 0.0278242 0.0025 1.00008 1.00011 2.50008 0.00499962 154 4 1 1.72445e-08 
-0.11125 5.53947e-05 0.0168303 0.0025 1.00004 1.00006 2.50004 0.00499978 155 4 1 1.10016e-08 
-0.10875 3.06165e-05 0.00986796 0.0025 1.00002 1.00003 2.50002 0.00499988 156 4 1 6.80073e-09 
-0.10625 1.63664e-05 0.00560067 0.0025 1.00001 1.00002 2.50001 0.00499994 157 4 1 4.07029e-09 
-0.10375 8.43931e-06 0.00307131 0.0025 1.00001 1.00001 2.50001 0.00499997 158 4 1 2.35587e-09 
-0.10125 4.18311e-06 0.00162327 0.0025 1 1 2.5 0.00499998 159 4 1 1.31645e-09 
-0.09875 1.9838e-06 0.000824104 0.0025 1 1 2.5 0.00499999 160 4 1 7.08584e-10 
-0.09625 8.94329e-07 0.000400036 0.0025 1 1 2.5 0.005 161 4 1 3.66226e-10 
-0.09375 3.79719e-07 0.000184476 0.0025 1 1 2.5 0.005 162 4 1 1.80973e-10 
-0.09125 1.49708e-07 8.00554e-05 0.0025 1 1 2.5 0.005 163 4 1 8.49867e-11 
-0.08875 5.35419e-08 3.2211e-05 0.0025 1 1 2.5 0.005 164 4 1 3.75936e-11 
-0.08625 1.66275e-08 1.17084e-05 0.0025 1 1 2.5 0.005 165 4 1 1.54491e-11 
-0.08375 4.05279e-09 3.66146e-06 0.0025 1 1 2.5 0.005 166 4 1 5.74238e-12 
-0.08125 5.31828e-10 8.48873e-07 0.0025 1 1 2.5 0.005 167 4 1 1.89168e-12 
-0.07875 -9.37652e-11 -3.76963e-09 0.0025 1 1 2.5 0.005 168 5 1 4.70418e-13 
-0.07625 8.93075e-11 -9.60825e-08 0.0025 1 1 2.5 0.005 169 4 1 -2.40952e-14 
-0.07375 1.39334e-10 4.79724e-09 0.0025 1 1 2.5 0.005 170 3 1 -5.29308e-14 
-0.07125 1.03946e-10 2.2828e-08 0.0025 1 1 2.5 0.005 171 4 1 -4.23448e-15 
-0.06875 6.06836e-11 2.01927e-08 0.0025 1 1 2.5 0.005 172 4 1 8.1684e-15 
-0.06625 3.01543e-11 1.25979e-08 0.0025 1 1 2.5 0.005 173 4 1 8.35172e-15 
-0.06375 1.30152e-11 6.54569e-09 0.0025 1 1 2.5 0.005 174 4 1 5.58131e-15 
-0.06125 4.82687e-12 2.90709e-09 0.0025 1 1 2.5 0.005 175 4 1 3.03189e-15 
-0.05875 1.46792e-12 1.09935e-09 0.0025 1 1 2.5 0.005 176 4 1 1.33511e-15 
-0.05625 3.15037e-13 3.31397e-10 0.0025 1 1 2.5 0.005 177 4 1 5.42499e-16 
-0.05375 9.15147e-15 6.98037e-11 0.0025 1 1 2.5 0.005 178 4 1 1.75149e-16 
-0.05125 -1.33176e-14 -1.91562e-11 0.0025 1 1 2.5 0.005 179 5 1 3.01981e-17 
-0.04875 6.74475e-15 -6.82121e-12 0.0025 1 1 2.5 0.005 180 4 1 -1.06581e-17 
-0.04625 8.10126e-15 9.09495e-13 0.0025 1 1 2.5 0.005 181 3 1 -7.10543e-19 
-0.04375 7.98866e-15 5.68434e-13 0.0025 1 1 2.5 0.005 182 4 1 -4.61853e-18 
-0.04125 3.71779e-15 4.09273e-12 0.0025 1 1 2.5 0.005 183 4 1 3.55271e-18 
-0.03875 -2.40428e-16 3.41061e-13 0.0025 1 1 2.5 0.005 184 5 1 -1.77636e-18 
-0.03625 -1.22675e-15 -2.27374e-13 0.0025 1 1 2.5 0.005 185 4 1 -7.10543e-18 
-0.03375 -2.29037e-15 -3.29054e-26 0.0025 1 1 2.5 0.005 186 4 1 -7.81597e-18 
-0.03125 2.31128e-15 2.07076e-26 0.0025 1 1 2.5 0.005 187 3 1 4.76064e-17 
-0.02875 2.13471e-16 -1.13687e-13 0.0025 1 1 2.5 0.005 188 4 1 -3.97904e-17 
-0.02625 -5.89253e-16 1.65661e-27 0.0025 1 1 2.5 0.005 189 5 1 9.9476e-18 
-0.02375 -1.50703e-15 1.13687e-13 0.0025 1 1 2.5 0.005 190 3 1 -3.55271e-18 
-0.02125 -2.21769e-15 2.2877e-27 0.0025 1 1 2.5 0.005 191 4 1 6.03961e-18 
-0.01875 2.84606e-16 1.68619e-27 0.0025 1 1 2.5 0.005 192 5 1 -8.88178e-18 
-0.01625 -2.0764e-15 -1.82424e-27 0.0025 1 1 2.5 0.005 193 4 1 3.19744e-18 
-0.01375 1.20647e-15 -1.08468e-28 0.0025 1 1 2.5 0.005 194 3 1 2.84217e-18 
-0.01125 7.87161e-16 6.82121e-13 0.0025 1 1 2.5 0.005 195 4 1 -1.77636e-18 
-0.00875 1.68728e-15 -4.54747e-13 0.0025 1 1 2.5 0.005 196 4 1 1.10934e-32 
-0.00625 7.39765e-16 7.38964e-13 0.0025 1 1 2.5 0.005 197 4 1 3.55271e-19 
-0.00375 1.19386e-15 -2.27374e-13 0.0025 1 1 2.5 0.005 198 5 1 -1.42109e-18 
-0.00125 9.9345e-16 1.7053e-13 0.0025 1 1 2.5 0.005 199 5 1 -1.42109e-18 
0.00125 1.24895e-15 -3.41061e-13 0.0025 1 1 2.5 0.005 200 4 1 3.55271e-19 
0.00375 1.65692e-15 3.97904e-13 0.0025 1 1 2.5 0.005 201 4 1 3.77482e-33 
0.00625 9.41156e-16 -4.54747e-13 0.0025 1 1 2.5 0.005 202 4 1 7.10543e-19 
0.00875 1.34949e-15 2.27374e-13 0.0025 1 1 2.5 0.005 203 3 1 0 
0.01125 9.91052e-16 3.54987e-28 0.0025 1 1 2.5 0.005 204 4 1 2.4869e-18 
0.01375 9.03413e-16 -5.68434e-14 0.0025 1 1 2.5 0.005 205 4 1 -4.61853e-18 
0.01625 2.72089e-15 5.68434e-13 0.0025 1 1 2.5 0.005 206 5 1 -3.19744e-18 
0.01875 6.61888e-16 -3.41061e-13 0.0025 1 1 2.5 0.005 207 4 1 2.4869e-18 
0.02125 1.13747e-15 -4.54747e-13 0.0025 1 1 2.5 0.005 208 4 1 -4.26326e-18 
0.02375 1.02547e-15 -1.13687e-13 0.0025 1 1 2.5 0.005 209 3 1 1.38556e-17 
0.02625 2.54748e-15 2.27374e-13 0.0025 1 1 2.5 0.005 210 5 1 -2.23821e-17 
0.02875 1.70024e-15 9.09495e-13 0.0025 1 1 2.5 0.005 211 4 1 8.52651e-18 
0.03125 1.89146e-15 -4.54747e-13 0.0025 1 1 2.5 0.005 212 3 1 2.27374e-17 
0.03375 4.99216e-15 -2.95586e-12 0.0025 1 1 2.5 0.005 213 4 1 -1.66978e-17 
0.03625 2.62079e-15 2.67164e-12 0.0025 1 1 2.5 0.005 214 5 1 -9.59233e-18 
0.03875 -2.04521e-15 -1.42109e-12 0.0025 1 1 2.5 0.005 215 3 1 1.91847e-17 
0.04125 5.695e-15 2.27374e-13 0.0025 1 1 2.5 0.005 216 5 1 -8.17124e-18 
0.04375 1.42711e-16 -3.18323e-12 0.0025 1 1 2.5 0.005 217 4 1 -8.52651e-18 
0.04625 -8.23187e-15 -1.59162e-12 0.0025 1 1 2.5 0.005 218 3 1 9.23706e-18 
0.04875 -3.76247e-15 9.09495e-12 0.0025 1 1 2.5 0.005 219 4 1 -1.06581e-17 
0.05125 1.83174e-14 1.65983e-11 0.0025 1 1 2.5 0.005 220 5 1 2.30926e-17 
0.05375 -4.33317e-15 -6.54836e-11 0.0025 1 1 2.5 0.005 221 4 1 1.8332e-16 
0.05625 -3.11168e-13 -3.3333e-10 0.0025 1 1 2.5 0.005 222 4 1 5.51381e-16 
0.05875 -1.45915e-12 -1.09696e-09 0.0025 1 1 2.5 0.005 223 4 1 1.27116e-15 
0.06125 -4.81859e-12 -2.91084e-09 0.0025 1 1 2.5 0.005 224 4 1 3.10756e-15 
0.06375 -1.30118e-11 -6.54234e-09 0.0025 1 1 2.5 0.005 225 4 1 5.56533e-15 
