# Time [s]: 0.269073
# Columns: pos [m], vel [m/s], acc [m/s^2], mass [kg], dens [kg/m^3], pres [Pa], ene [J/kg], sml [m], id, neighbor, alpha, gradh, ...additional?
1.32111 -0.673117 0.000476963 0.0025 0.511039 0.432713 2.15248 0.00978399 0 4 1 -0.000134225 
1.3259 -0.673121 0.000562726 0.0025 0.536895 0.426175 1.95002 0.00931281 1 4 1 0.00017925 
1.33043 -0.673125 0.000648186 0.0025 0.548224 0.430844 1.96848 0.00912036 2 3 1 -1.90587e-05 
1.33502 -0.673128 0.000740008 0.0025 0.545958 0.429178 1.96462 0.00915822 3 5 1 3.48569e-06 
1.33959 -0.673132 0.000838186 0.0025 0.546354 0.429332 1.96456 0.00915157 4 4 1 -1.38938e-07 
1.34417 -0.673136 0.000940061 0.0025 0.546364 0.4293 1.96432 0.00915142 5 4 1 1.43457e-07 
1.34874 -0.67314 0.00103826 0.0025 0.546385 0.429297 1.96426 0.00915106 6 4 1 -3.77306e-09 
1.35332 -0.673144 0.00112505 0.0025 0.546396 0.429292 1.9642 0.00915088 7 4 1 7.99743e-09 
1.35789 -0.673149 0.00119953 0.0025 0.546408 0.429288 1.96414 0.00915068 8 4 1 4.55227e-09 
1.36247 -0.673154 0.00127135 0.0025 0.546417 0.429285 1.96409 0.00915051 9 4 1 5.26614e-09 
1.36704 -0.673159 0.00135547 0.0025 0.546426 0.429282 1.96404 0.00915037 10 4 1 -2.4795e-09 
1.37162 -0.673165 0.00145998 0.0025 0.546434 0.429278 1.964 0.00915023 11 4 1 4.44305e-09 
1.37619 -0.673171 0.00157802 0.0025 0.546441 0.429274 1.96395 0.00915012 12 4 1 2.53541e-09 
1.38077 -0.673177 0.0016935 0.0025 0.546447 0.42927 1.96391 0.00915003 13 4 1 3.25746e-09 
1.38534 -0.673184 0.00179815 0.0025 0.546451 0.429265 1.96388 0.00914996 14 4 1 1.81912e-09 
1.38992 -0.673192 0.00190364 0.0025 0.546454 0.42926 1.96384 0.0091499 15 4 1 -1.89602e-09 
1.39449 -0.673201 0.00203434 0.0025 0.546457 0.429255 1.96381 0.00914985 16 4 1 4.52514e-09 
1.39907 -0.67321 0.00220505 0.0025 0.546458 0.42925 1.96378 0.00914983 17 4 1 1.0148e-09 
1.40364 -0.67322 0.00240577 0.0025 0.546459 0.429244 1.96375 0.00914982 18 4 1 -1.72788e-09 
1.40822 -0.673231 0.00261103 0.0025 0.546459 0.429237 1.96372 0.00914982 19 3 1 2.14733e-09 
1.41279 -0.673243 0.00280677 0.0025 0.546458 0.42923 1.96369 0.00914983 20 4 1 6.20421e-10 
1.41737 -0.673256 0.00300782 0.0025 0.546456 0.429222 1.96366 0.00914987 21 4 1 6.08888e-10 
1.42194 -0.67327 0.00324771 0.0025 0.546453 0.429214 1.96364 0.00914992 22 4 1 3.69281e-10 
1.42652 -0.673285 0.00355072 0.0025 0.546449 0.429205 1.96361 0.00914998 23 4 1 -1.01483e-09 
1.43109 -0.673302 0.00391275 0.0025 0.546444 0.429195 1.96358 0.00915006 24 4 1 4.88981e-10 
1.43567 -0.67332 0.00430695 0.0025 0.546438 0.429185 1.96356 0.00915016 25 4 1 -3.43554e-10 
1.44024 -0.67334 0.00470726 0.0025 0.546431 0.429173 1.96353 0.00915029 26 4 1 -1.48509e-09 
1.44482 -0.673362 0.0051126 0.0025 0.546423 0.42916 1.9635 0.00915043 27 4 1 4.16363e-11 
1.44939 -0.673386 0.00555857 0.0025 0.546413 0.429146 1.96347 0.00915059 28 4 1 -4.68982e-10 
1.45397 -0.673412 0.0061071 0.0025 0.546402 0.42913 1.96344 0.00915078 29 4 1 -2.40232e-09 
1.45855 -0.673442 0.00680896 0.0025 0.546389 0.429113 1.96341 0.00915099 30 4 1 -1.53781e-09 
1.46312 -0.673475 0.00765404 0.0025 0.546374 0.429094 1.96337 0.00915124 31 4 1 -4.52085e-10 
1.4677 -0.67351 0.00855965 0.0025 0.546357 0.429073 1.96334 0.00915153 32 4 1 -3.48411e-09 
1.47227 -0.67355 0.00944489 0.0025 0.546338 0.429049 1.9633 0.00915185 33 4 1 -3.54135e-09 
1.47685 -0.673594 0.0103522 0.0025 0.546316 0.429023 1.96325 0.00915221 34 4 1 -8.33429e-10 
1.48142 -0.673645 0.0114722 0.0025 0.546291 0.428993 1.96321 0.00915263 35 4 1 -3.80699e-09 
1.486 -0.673702 0.0129833 0.0025 0.546263 0.428961 1.96316 0.00915309 36 4 1 -5.45578e-09 
1.49058 -0.673766 0.0148608 0.0025 0.546232 0.428924 1.9631 0.00915362 37 4 1 -4.05312e-09 
1.49515 -0.673836 0.0169111 0.0025 0.546195 0.428882 1.96304 0.00915423 38 4 1 -5.90376e-09 
1.49973 -0.673915 0.0189996 0.0025 0.546153 0.428834 1.96298 0.00915494 39 4 1 -6.97664e-09 
-0.49569 -0.674004 0.0211744 0.0025 0.546106 0.42878 1.9629 0.00915573 40 4 1 -5.84613e-09 
-0.491112 -0.674106 0.0235989 0.0025 0.546053 0.428721 1.96282 0.00915661 41 4 1 -6.7114e-09 
-0.486534 -0.674221 0.0264439 0.0025 0.545994 0.428654 1.96272 0.00915761 42 4 1 -8.58489e-09 
-0.481955 -0.67435 0.0297286 0.0025 0.545928 0.42858 1.96262 0.00915871 43 4 1 -8.53027e-09 
-0.477375 -0.674492 0.0331915 0.0025 0.545855 0.428498 1.96251 0.00915995 44 4 1 -7.243e-09 
-0.472795 -0.674647 0.0364389 0.0025 0.545774 0.428407 1.96239 0.00916131 45 4 1 -7.00578e-09 
-0.468214 -0.674813 0.0390677 0.0025 0.545687 0.428311 1.96226 0.00916276 46 4 1 -4.35473e-09 
-0.463632 -0.674988 0.0405837 0.0025 0.545597 0.428211 1.96212 0.00916428 47 4 1 1.42984e-09 
-0.459049 -0.675167 0.0406662 0.0025 0.545507 0.428111 1.96199 0.00916579 48 4 1 6.50409e-09 
-0.454466 -0.675341 0.0392375 0.0025 0.545421 0.428016 1.96186 0.00916722 49 4 1 1.17857e-08 
-0.449882 -0.675496 0.0349756 0.0025 0.545346 0.427933 1.96174 0.00916849 50 4 1 2.35696e-08 
-0.445298 -0.675623 0.0252311 0.0025 0.54529 0.42787 1.96166 0.00916943 51 4 1 2.52749e-08 
-0.440713 -0.675699 0.0176563 0.0025 0.545254 0.427831 1.9616 0.00917003 52 4 1 4.12854e-08 
-0.436128 -0.675772 0.00606801 0.0025 0.545254 0.427833 1.9616 0.00917004 53 5 1 1.40176e-07 
-0.431543 -0.67557 -0.087787 0.0025 0.545369 0.42796 1.96176 0.0091681 54 4 1 1.7789e-07 
-0.426959 -0.675087 -0.115193 0.0025 0.545631 0.42825 1.96213 0.00916371 55 4 1 2.75683e-07 
-0.422379 -0.674349 -0.238365 0.0025 0.546115 0.428799 1.96282 0.00915558 56 4 1 7.61037e-07 
-0.417804 -0.672465 -0.636679 0.0025 0.547178 0.429981 1.96434 0.0091378 57 4 1 1.24109e-06 
-0.413241 -0.668755 -1.06489 0.0025 0.549103 0.432096 1.9671 0.00910577 58 4 1 1.30618e-06 
-0.408698 -0.663528 -1.35337 0.0025 0.551809 0.435071 1.97097 0.00906111 59 4 1 1.24134e-06 
-0.40418 -0.657273 -1.56922 0.0025 0.555113 0.438722 1.97568 0.00900718 60 4 1 1.43047e-06 
-0.399691 -0.649961 -1.86108 0.0025 0.559008 0.443043 1.98121 0.00894441 61 4 1 1.82099e-06 
-0.395235 -0.641365 -2.20829 0.0025 0.563598 0.448147 1.9877 0.00887157 62 4 1 2.17918e-06 
-0.390819 -0.631407 -2.55887 0.0025 0.568925 0.454086 1.99519 0.00878851 63 4 1 2.4124e-06 
-0.386447 -0.620195 -2.86523 0.0025 0.574931 0.460804 2.00359 0.0086967 64 4 1 2.42936e-06 
-0.382122 -0.608121 -3.05698 0.0025 0.581446 0.46812 2.01264 0.00859925 65 4 1 2.23814e-06 
-0.377847 -0.595698 -3.12537 0.0025 0.588233 0.475779 2.022 0.00850003 66 4 1 2.05095e-06 
-0.373622 -0.58323 -3.16089 0.0025 0.59512 0.48359 2.03144 0.00840166 67 4 1 1.87155e-06 
-0.369445 -0.570924 -3.13488 0.0025 0.601997 0.491426 2.04079 0.00830568 68 4 1 1.68285e-06 
-0.365316 -0.558922 -3.0879 0.0025 0.608777 0.499188 2.04995 0.00821319 69 4 1 1.53764e-06 
-0.361232 -0.547277 -3.02789 0.0025 0.61542 0.506829 2.05887 0.00812453 70 4 1 1.43329e-06 
-0.357191 -0.536002 -2.97744 0.0025 0.621919 0.514336 2.06753 0.00803964 71 4 1 1.33719e-06 
-0.353192 -0.525034 -2.91429 0.0025 0.628272 0.521706 2.07595 0.00795834 72 4 1 1.26842e-06 
-0.349232 -0.514442 -2.86954 0.0025 0.634491 0.528951 2.08414 0.00788033 73 4 1 1.24912e-06 
-0.345311 -0.504071 -2.84159 0.0025 0.640612 0.53611 2.09216 0.00780504 74 4 1 1.27002e-06 
-0.341427 -0.493875 -2.84506 0.0025 0.646687 0.543243 2.10007 0.00773172 75 4 1 1.32053e-06 
-0.337579 -0.483759 -2.86975 0.0025 0.652771 0.550415 2.10795 0.00765965 76 4 1 1.43243e-06 
-0.333767 -0.473533 -2.95667 0.0025 0.658944 0.557718 2.1159 0.00758789 77 4 1 1.52361e-06 
-0.329991 -0.463155 -3.03205 0.0025 0.665255 0.56521 2.12398 0.00751591 78 4 1 1.57517e-06 
-0.326251 -0.452605 -3.12247 0.0025 0.671713 0.572907 2.1322 0.00744365 79 4 1 1.64045e-06 
-0.322547 -0.441876 -3.21917 0.0025 0.678334 0.580827 2.14058 0.007371 80 4 1 1.65818e-06 
-0.31888 -0.430962 -3.29477 0.0025 0.6851 0.588951 2.14909 0.00729821 81 4 1 1.61757e-06 
-0.315249 -0.420018 -3.33594 0.0025 0.691961 0.597223 2.15768 0.00722584 82 4 1 1.56751e-06 
-0.311654 -0.409068 -3.36486 0.0025 0.698875 0.605593 2.16627 0.00715435 83 4 1 1.55992e-06 
-0.308095 -0.398148 -3.40893 0.0025 0.705835 0.614051 2.17487 0.00708381 84 4 1 1.51384e-06 
-0.30457 -0.387246 -3.41168 0.0025 0.712816 0.622568 2.18345 0.00701444 85 4 1 1.46419e-06 
-0.30108 -0.376481 -3.42713 0.0025 0.719793 0.631115 2.19197 0.00694644 86 4 1 1.45159e-06 
-0.297623 -0.365745 -3.44391 0.0025 0.726772 0.639698 2.20045 0.00687973 87 4 1 1.39108e-06 
-0.2942 -0.355188 -3.42812 0.0025 0.733731 0.648288 2.20885 0.00681449 88 4 1 1.3742e-06 
-0.290809 -0.344715 -3.45208 0.0025 0.740672 0.65689 2.21718 0.00675063 89 4 1 1.34963e-06 
-0.287449 -0.334318 -3.44247 0.0025 0.747601 0.665508 2.22545 0.00668806 90 4 1 1.32657e-06 
-0.284121 -0.324038 -3.46425 0.0025 0.754516 0.674142 2.23366 0.00662677 91 4 1 1.30774e-06 
-0.280822 -0.313817 -3.4621 0.0025 0.761422 0.682795 2.24182 0.00656666 92 4 1 1.25129e-06 
-0.277554 -0.30375 -3.45134 0.0025 0.768297 0.691441 2.24989 0.0065079 93 4 1 1.26194e-06 
-0.274314 -0.29373 -3.48335 0.0025 0.775163 0.700107 2.25791 0.00645026 94 4 1 1.20719e-06 
-0.271103 -0.283869 -3.44453 0.0025 0.782004 0.708772 2.26586 0.00639383 95 4 1 1.21211e-06 
-0.26792 -0.274084 -3.49773 0.0025 0.788833 0.717454 2.27376 0.00633848 96 4 1 1.21757e-06 
-0.264765 -0.264292 -3.49112 0.0025 0.795674 0.726176 2.28162 0.00628398 97 4 1 1.11989e-06 
-0.261636 -0.25471 -3.45849 0.0025 0.802468 0.734873 2.28939 0.00623078 98 4 1 1.15794e-06 
-0.258534 -0.245156 -3.51581 0.0025 0.809256 0.743591 2.29712 0.00617851 99 4 1 1.14182e-06 
-0.255458 -0.235627 -3.49336 0.0025 0.816046 0.752335 2.30481 0.00612711 100 4 1 1.02501e-06 
-0.252407 -0.226345 -3.44107 0.0025 0.822766 0.761027 2.31238 0.00607706 101 4 1 1.12075e-06 
-0.24938 -0.217069 -3.54433 0.0025 0.829499 0.769761 2.31993 0.00602773 102 4 1 1.11252e-06 
-0.246379 -0.207751 -3.50896 0.0025 0.836258 0.778552 2.32748 0.00597901 103 4 1 9.67172e-07 
-0.243401 -0.1987 -3.45759 0.0025 0.842944 0.787283 2.3349 0.00593159 104 4 1 1.06391e-06 
-0.240447 -0.189672 -3.55414 0.0025 0.849639 0.796053 2.3423 0.00588485 105 4 1 1.08505e-06 
-0.237516 -0.180551 -3.55316 0.0025 0.856375 0.804894 2.34971 0.00583857 106 4 1 8.6675e-07 
-0.234609 -0.171746 -3.41441 0.0025 0.862999 0.813627 2.35696 0.00579375 107 4 1 9.42389e-07 
-0.231723 -0.163054 -3.52227 0.0025 0.869583 0.822338 2.36414 0.00574988 108 4 1 1.0958e-06 
-0.228859 -0.154184 -3.59347 0.0025 0.876263 0.831188 2.37139 0.00570605 109 4 1 8.99903e-07 
-0.226016 -0.145437 -3.47324 0.0025 0.882895 0.840004 2.37855 0.00566318 110 4 1 7.87328e-07 
-0.223195 -0.137069 -3.42755 0.0025 0.889406 0.8487 2.38555 0.00562173 111 4 1 1.08247e-06 
-0.220395 -0.128471 -3.68397 0.0025 0.896032 0.857564 2.39264 0.00558016 112 4 1 9.86404e-07 
-0.217615 -0.119706 -3.54692 0.0025 0.902711 0.86651 2.39977 0.00553887 113 4 1 5.77018e-07 
-0.214856 -0.111593 -3.31094 0.0025 0.909131 0.875159 2.40657 0.00549976 114 4 1 8.56959e-07 
-0.212115 -0.103564 -3.55134 0.0025 0.915533 0.883812 2.41333 0.0054613 115 4 1 1.13973e-06 
-0.209394 -0.0950126 -3.69824 0.0025 0.922159 0.892766 2.42031 0.00542206 116 4 1 6.99208e-07 
-0.206693 -0.0867693 -3.38482 0.0025 0.928666 0.901589 2.42712 0.00538407 117 4 1 5.76339e-07 
-0.20401 -0.079089 -3.38151 0.0025 0.934953 0.910163 2.43368 0.00534786 118 4 1 1.0063e-06 
-0.201345 -0.0710275 -3.661 0.0025 0.941393 0.918951 2.44037 0.00531128 119 4 1 9.10451e-07 
-0.198699 -0.0628066 -3.55472 0.0025 0.947927 0.927879 2.44714 0.00527467 120 4 1 5.7992e-07 
-0.19607 -0.0550674 -3.40342 0.0025 0.954273 0.936591 2.45367 0.00523959 121 4 1 7.13008e-07 
-0.193459 -0.0473664 -3.51478 0.0025 0.960537 0.945209 2.46011 0.00520542 122 4 1 5.47173e-07 
-0.190865 -0.0398198 -3.21718 0.0025 0.966645 0.953621 2.46635 0.00517253 123 4 1 3.00387e-07 
-0.188287 -0.0330436 -3.01942 0.0025 0.972457 0.961687 2.47225 0.00514161 124 4 1 1.26146e-06 
-0.185723 -0.0256186 -3.97666 0.0025 0.978737 0.970418 2.47863 0.00510863 125 4 1 1.58365e-06 
-0.183178 -0.0165807 -4.2031 0.0025 0.985666 0.979972 2.4857 0.00507271 126 4 1 -7.69746e-07 
-0.180651 -0.00959491 -2.11406 0.0025 0.991346 0.98784 2.49139 0.00504365 127 4 1 -1.28723e-06 
-0.178134 -0.00596392 -1.65739 0.0025 0.995421 0.993661 2.49538 0.005023 128 4 1 2.36912e-06 
-0.175628 0.000543512 -4.73001 0.0025 1.00109 1.00165 2.50111 0.00499456 129 4 1 2.84828e-06 
-0.17314 0.011223 -4.87915 0.0025 1.00864 1.01205 2.50876 0.00495717 130 4 1 -2.43779e-06 
-0.17067 0.0171657 -0.867139 0.0025 1.01349 1.0188 2.51353 0.00493343 131 4 1 -3.1595e-06 
-0.168206 0.0170183 0.430048 0.0025 1.01492 1.02101 2.5148 0.00492651 132 4 1 2.02938e-06 
-0.165744 0.0204783 -3.63602 0.0025 1.01791 1.02526 2.51784 0.00491201 133 4 1 1.70149e-06 
-0.163294 0.027455 -2.43228 0.0025 1.02241 1.03141 2.52238 0.00489043 134 4 1 -2.68873e-06 
-0.160853 0.0290851 0.145129 0.0025 1.02411 1.03382 2.52402 0.00488227 135 3 1 -2.15126e-06 
-0.158412 0.0278987 0.816923 0.0025 1.02318 1.03258 2.52307 0.00488671 136 4 1 -6.93021e-07 
-0.155967 0.0257569 1.13973 0.0025 1.02134 1.03001 2.52124 0.00489551 137 4 1 -2.24267e-07 
-0.153516 0.0232025 1.28164 0.0025 1.01915 1.02692 2.51907 0.00490605 138 4 1 -2.11295e-08 
-0.151061 0.0204762 1.33632 0.0025 1.01683 1.02364 2.51676 0.00491727 139 4 1 8.88044e-08 
-0.148599 0.0177169 1.33295 0.0025 1.01449 1.02036 2.51445 0.00492857 140 4 1 1.58263e-07 
-0.146132 0.0150225 1.28677 0.0025 1.01223 1.01718 2.5122 0.00493958 141 4 1 2.0524e-07 
-0.143659 0.0124696 1.20649 0.0025 1.01011 1.01419 2.51008 0.00494997 142 4 1 2.36268e-07 
-0.141182 0.0101197 1.0989 0.0025 1.00817 1.01147 2.50815 0.0049595 143 4 1 2.53228e-07 
-0.1387 0.0080203 0.97128 0.0025 1.00645 1.00905 2.50643 0.00496798 144 4 1 2.56606e-07 
-0.136214 0.00620163 0.832089 0.0025 1.00497 1.00697 2.50496 0.0049753 145 4 1 2.47318e-07 
-0.133725 0.0046755 0.69039 0.0025 1.00373 1.00524 2.50372 0.00498142 146 4 1 2.27474e-07 
-0.131233 0.00343543 0.554632 0.0025 1.00273 1.00384 2.50273 0.00498637 147 4 1 2.00213e-07 
-0.128738 0.00245968 0.431507 0.0025 1.00195 1.00274 2.50195 0.00499026 148 4 1 1.69077e-07 
-0.126242 0.00171588 0.325286 0.0025 1.00136 1.00191 2.50135 0.00499322 149 4 1 1.3734e-07 
-0.123745 0.00116624 0.237753 0.0025 1.00092 1.0013 2.50092 0.0049954 150 4 1 1.07549e-07 
-0.121247 0.000772223 0.1686 0.0025 1.00061 1.00086 2.50061 0.00499696 151 4 1 8.13459e-08 
-0.118748 0.000498056 0.116067 0.0025 1.00039 1.00055 2.50039 0.00499804 152 4 1 5.95172e-08 
-0.116249 0.000312785 0.0775975 0.0025 1.00025 1.00035 2.50025 0.00499877 153 4 1 4.21713e-08 
-0.113749 0.000191168 0.0503886 0.0025 1.00015 1.00021 2.50015 0.00499925 154 4 1 2.89595e-08 
-0.11125 0.000113619 0.0317766 0.0025 1.00009 1.00013 2.50009 0.00499955 155 4 1 1.92817e-08 
-0.10875 6.55986e-05 0.0194528 0.0025 1.00005 1.00007 2.50005 0.00499974 156 4 1 1.24484e-08 
-0.10625 3.67402e-05 0.011551 0.0025 1.00003 1.00004 2.50003 0.00499986 157 4 1 7.79091e-09 
-0.10375 1.99251e-05 0.00664532 0.0025 1.00002 1.00002 2.50002 0.00499992 158 4 1 4.72391e-09 
-0.10125 1.04388e-05 0.00369796 0.0025 1.00001 1.00001 2.50001 0.00499996 159 4 1 2.77219e-09 
-0.09875 5.26697e-06 0.00198614 0.0025 1 1.00001 2.5 0.00499998 160 4 1 1.57226e-09 
-0.09625 2.54894e-06 0.00102655 0.0025 1 1 2.5 0.00499999 161 4 1 8.60077e-10 
-0.09375 1.17665e-06 0.000508581 0.0025 1 1 2.5 0.005 162 4 1 4.52569e-10 
-0.09125 5.14094e-07 0.000240194 0.0025 1 1 2.5 0.005 163 4 1 2.28224e-10 
-0.08875 2.10154e-07 0.000107294 0.0025 1 1 2.5 0.005 164 4 1 1.09731e-10 
-0.08625 7.89229e-08 4.47936e-05 0.0025 1 1 2.5 0.005 165 4 1 4.99336e-11 
-0.08375 2.63727e-08 1.71412e-05 0.0025 1 1 2.5 0.005 166 4 1 2.12652e-11 
-0.08125 7.34401e-09 5.79495e-06 0.0025 1 1 2.5 0.005 167 4 1 8.32192e-12 
-0.07875 1.41694e-09 1.59096e-06 0.0025 1 1 2.5 0.005 168 4 1 2.89963e-12 
-0.07625 1.63078e-11 2.76729e-07 0.0025 1 1 2.5 0.005 169 4 1 8.61539e-13 
-0.07375 -6.54473e-12 -1.38582e-07 0.0025 1 1 2.5 0.005 170 5 1 1.24549e-13 
-0.07125 1.22881e-10 -2.25195e-08 0.0025 1 1 2.5 0.005 171 3 1 -6.89123e-14 
-0.06875 1.11652e-10 1.64598e-08 0.0025 1 1 2.5 0.005 172 4 1 -1.76158e-14 
-0.06625 7.19462e-11 2.03793e-08 0.0025 1 1 2.5 0.005 173 4 1 3.98614e-15 
-0.06375 3.844e-11 1.45536e-08 0.0025 1 1 2.5 0.005 174 4 1 8.10729e-15 
-0.06125 1.7757e-11 8.17204e-09 0.0025 1 1 2.5 0.005 175 4 1 6.2947e-15 
-0.05875 7.12216e-12 3.91589e-09 0.0025 1 1 2.5 0.005 176 4 1 3.65787e-15 
-0.05625 2.41064e-12 1.60475e-09 0.0025 1 1 2.5 0.005 177 4 1 1.82325e-15 
-0.05375 6.32176e-13 5.51722e-10 0.0025 1 1 2.5 0.005 178 4 1 7.7236e-16 
-0.05125 9.3981e-14 1.41256e-10 0.0025 1 1 2.5 0.005 179 4 1 2.74625e-16 
-0.04875 -1.81925e-14 9.15179e-12 0.0025 1 1 2.5 0.005 180 4 1 6.92779e-17 
-0.04625 -3.93918e-15 -1.3813e-11 0.0025 1 1 2.5 0.005 181 5 1 6.39488e-18 
-0.04375 8.49542e-15 -1.08002e-12 0.0025 1 1 2.5 0.005 182 4 1 -6.03961e-18 
-0.04125 8.68062e-15 -9.09495e-13 0.0025 1 1 2.5 0.005 183 3 1 1.06581e-18 
-0.03875 6.15553e-15 4.77485e-12 0.0025 1 1 2.5 0.005 184 4 1 -3.90799e-18 
-0.03625 -5.27744e-16 9.09495e-13 0.0025 1 1 2.5 0.005 185 5 1 -6.03961e-18 
-0.03375 -2.53503e-15 1.13687e-13 0.0025 1 1 2.5 0.005 186 4 1 -4.61853e-18 
-0.03125 2.03167e-15 -2.27374e-13 0.0025 1 1 2.5 0.005 187 3 1 4.61853e-17 
-0.02875 7.36752e-17 -1.13687e-13 0.0025 1 1 2.5 0.005 188 4 1 -3.97904e-17 
-0.02625 -5.36825e-16 5.68434e-14 0.0025 1 1 2.5 0.005 189 5 1 9.59233e-18 
-0.02375 -1.48956e-15 5.68434e-14 0.0025 1 1 2.5 0.005 190 3 1 -2.84217e-18 
-0.02125 -2.27012e-15 -5.68434e-14 0.0025 1 1 2.5 0.005 191 4 1 5.68434e-18 
-0.01875 2.32184e-16 5.68434e-14 0.0025 1 1 2.5 0.005 192 4 1 -8.88178e-18 
-0.01625 -1.39487e-15 9.66338e-13 0.0025 1 1 2.5 0.005 193 5 1 2.13163e-18 
-0.01375 1.24145e-15 -6.82121e-13 0.0025 1 1 2.5 0.005 194 3 1 4.9738e-18 
-0.01125 1.62593e-15 -2.27374e-13 0.0025 1 1 2.5 0.005 195 4 1 -2.4869e-18 
-0.00875 1.56497e-15 9.66338e-13 0.0025 1 1 2.5 0.005 196 4 1 -7.10543e-19 
-0.00625 1.38632e-15 -2.27374e-13 0.0025 1 1 2.5 0.005 197 5 1 2.34963e-32 
-0.00375 1.22883e-15 -1.13687e-13 0.0025 1 1 2.5 0.005 198 3 1 0 
-0.00125 1.04587e-15 2.27374e-13 0.0025 1 1 2.5 0.005 199 5 1 5.00742e-33 
0.00125 1.21401e-15 2.27374e-13 0.0025 1 1 2.5 0.005 200 5 1 -7.10543e-19 
0.00375 1.32487e-15 -6.82121e-13 0.0025 1 1 2.5 0.005 201 5 1 1.06581e-18 
0.00625 2.94594e-16 -3.97904e-13 0.0025 1 1 2.5 0.005 202 3 1 3.55271e-19 
0.00875 1.64654e-15 1.08002e-12 0.0025 1 1 2.5 0.005 203 4 1 3.77482e-33 
0.01125 2.05706e-15 -1.7053e-13 0.0025 1 1 2.5 0.005 204 5 1 2.4869e-18 
0.01375 1.27041e-15 -5.68434e-13 0.0025 1 1 2.5 0.005 205 4 1 -3.90799e-18 
0.01625 1.88203e-15 3.41061e-13 0.0025 1 1 2.5 0.005 206 4 1 -1.42109e-18 
0.01875 9.41509e-16 -3.58932e-27 0.0025 1 1 2.5 0.005 207 4 1 1.77636e-18 
0.02125 1.58877e-16 -4.54747e-13 0.0025 1 1 2.5 0.005 208 3 1 -4.61853e-18 
0.02375 1.70699e-15 9.66338e-13 0.0025 1 1 2.5 0.005 209 3 1 1.3145e-17 
0.02625 2.44263e-15 -4.54747e-13 0.0025 1 1 2.5 0.005 210 5 1 -1.98952e-17 
0.02875 2.64389e-15 -3.41061e-13 0.0025 1 1 2.5 0.005 211 4 1 7.4607e-18 
0.03125 1.99631e-15 7.54348e-27 0.0025 1 1 2.5 0.005 212 3 1 2.27374e-17 
0.03375 -4.94966e-16 -1.59162e-12 0.0025 1 1 2.5 0.005 213 4 1 -1.56319e-17 
0.03625 5.46916e-15 9.09495e-13 0.0025 1 1 2.5 0.005 214 5 1 -1.35003e-17 
0.03875 4.88771e-16 5.68434e-13 0.0025 1 1 2.5 0.005 215 5 1 2.02505e-17 
0.04125 -3.19994e-15 -5.28644e-12 0.0025 1 1 2.5 0.005 216 4 1 -8.88178e-18 
0.04375 -6.98713e-15 6.82121e-13 0.0025 1 1 2.5 0.005 217 3 1 -1.98952e-17 
0.04625 1.0659e-14 1.76783e-11 0.0025 1 1 2.5 0.005 218 5 1 1.91847e-17 
0.04875 1.90951e-14 -1.13687e-11 0.0025 1 1 2.5 0.005 219 4 1 6.82121e-17 
0.05125 -8.45773e-14 -1.39607e-10 0.0025 1 1 2.5 0.005 220 4 1 2.6823e-16 
0.05375 -6.28197e-13 -5.48994e-10 0.0025 1 1 2.5 0.005 221 4 1 7.77689e-16 
0.05625 -2.40373e-12 -1.60611e-09 0.0025 1 1 2.5 0.005 222 4 1 1.83888e-15 
0.05875 -7.1123e-12 -3.91805e-09 0.0025 1 1 2.5 0.005 223 4 1 3.59357e-15 
0.06125 -1.77552e-11 -8.17158e-09 0.0025 1 1 2.5 0.005 224 4 1 6.36113e-15 
0.06375 -3.84339e-11 -1.45532e-08 0.0025 1 1 2.5 0.005 225 4 1 8.09663e-15 
