# Time [s]: 0.270303
# Columns: pos [m], vel [m/s], acc [m/s^2], mass [kg], dens [kg/m^3], pres [Pa], ene [J/kg], sml [m], id, neighbor, alpha, gradh, ...additional?
1.32029 -0.673117 0.000476723 0.0025 0.51104 0.432714 2.15248 0.00978398 0 4 1 -0.000134225 
1.32507 -0.67312 0.000561434 0.0025 0.536896 0.426176 1.95002 0.0093128 1 4 1 0.00017925 
1.32961 -0.673124 0.00064601 0.0025 0.548224 0.430844 1.96848 0.00912035 2 3 1 -1.90587e-05 
1.33419 -0.673127 0.000737104 0.0025 0.545958 0.429179 1.96462 0.00915821 3 5 1 3.4857e-06 
1.33876 -0.673131 0.000833793 0.0025 0.546355 0.429332 1.96456 0.00915156 4 4 1 -1.38932e-07 
1.34334 -0.673135 0.000932028 0.0025 0.546364 0.429301 1.96432 0.00915141 5 4 1 1.43467e-07 
1.34792 -0.673139 0.00102407 0.0025 0.546385 0.429297 1.96426 0.00915105 6 4 1 -3.75729e-09 
1.35249 -0.673143 0.0011039 0.0025 0.546396 0.429292 1.9642 0.00915087 7 4 1 8.01422e-09 
1.35707 -0.673147 0.0011737 0.0025 0.546408 0.429289 1.96414 0.00915067 8 4 1 4.5636e-09 
1.36164 -0.673152 0.001245 0.0025 0.546418 0.429286 1.96409 0.0091505 9 4 1 5.26885e-09 
1.36622 -0.673157 0.00133118 0.0025 0.546427 0.429282 1.96404 0.00915036 10 4 1 -2.48121e-09 
1.37079 -0.673163 0.0014359 0.0025 0.546435 0.429279 1.964 0.00915022 11 4 1 4.44613e-09 
1.37537 -0.673169 0.00154894 0.0025 0.546442 0.429275 1.96395 0.0091501 12 4 1 2.54923e-09 
1.37994 -0.673175 0.00165571 0.0025 0.546448 0.429271 1.96392 0.00915001 13 4 1 3.27792e-09 
1.38452 -0.673182 0.00175361 0.0025 0.546452 0.429266 1.96388 0.00914994 14 4 1 1.83468e-09 
1.38909 -0.67319 0.00185869 0.0025 0.546455 0.429262 1.96385 0.00914988 15 4 1 -1.89308e-09 
1.39367 -0.673198 0.00199336 0.0025 0.546458 0.429256 1.96381 0.00914983 16 4 1 4.52079e-09 
1.39824 -0.673207 0.0021652 0.0025 0.54646 0.429251 1.96378 0.0091498 17 4 1 1.01797e-09 
1.40282 -0.673217 0.00235861 0.0025 0.546461 0.429245 1.96375 0.00914979 18 4 1 -1.70713e-09 
1.40739 -0.673228 0.00255025 0.0025 0.546461 0.429239 1.96372 0.00914979 19 3 1 2.18018e-09 
1.41197 -0.673239 0.00273424 0.0025 0.54646 0.429232 1.96369 0.0091498 20 4 1 6.48819e-10 
1.41654 -0.673252 0.00293169 0.0025 0.546458 0.429224 1.96367 0.00914983 21 4 1 6.21288e-10 
1.42112 -0.673266 0.00317427 0.0025 0.546455 0.429216 1.96364 0.00914988 22 4 1 3.7071e-10 
1.42569 -0.673281 0.00347786 0.0025 0.546452 0.429208 1.96361 0.00914994 23 4 1 -1.00661e-09 
1.43027 -0.673297 0.0038306 0.0025 0.546447 0.429198 1.96359 0.00915002 24 4 1 5.19952e-10 
1.43484 -0.673315 0.0042044 0.0025 0.546441 0.429188 1.96356 0.00915012 25 4 1 -2.87966e-10 
1.43942 -0.673334 0.00457927 0.0025 0.546434 0.429176 1.96353 0.00915024 26 4 1 -1.41906e-09 
1.44399 -0.673355 0.0049642 0.0025 0.546426 0.429164 1.9635 0.00915037 27 4 1 9.59497e-11 
1.44857 -0.673379 0.00540272 0.0025 0.546416 0.42915 1.96347 0.00915053 28 4 1 -4.41241e-10 
1.45314 -0.673405 0.00595467 0.0025 0.546406 0.429135 1.96345 0.00915071 29 4 1 -2.39107e-09 
1.45772 -0.673434 0.00665375 0.0025 0.546393 0.429118 1.96341 0.00915092 30 4 1 -1.50241e-09 
1.46229 -0.673465 0.00746641 0.0025 0.546379 0.4291 1.96338 0.00915116 31 4 1 -3.46931e-10 
1.46687 -0.6735 0.00830457 0.0025 0.546362 0.429079 1.96334 0.00915143 32 4 1 -3.30961e-09 
1.47144 -0.673538 0.00911806 0.0025 0.546344 0.429056 1.96331 0.00915175 33 4 1 -3.36788e-09 
1.47602 -0.673582 0.00999443 0.0025 0.546323 0.42903 1.96326 0.0091521 34 4 1 -7.43266e-10 
1.4806 -0.673631 0.0111287 0.0025 0.546299 0.429002 1.96322 0.0091525 35 4 1 -3.7917e-09 
1.48517 -0.673686 0.0126428 0.0025 0.546272 0.42897 1.96317 0.00915295 36 4 1 -5.39948e-09 
1.48975 -0.673748 0.0144542 0.0025 0.546241 0.428934 1.96312 0.00915346 37 4 1 -3.85294e-09 
1.49433 -0.673816 0.0163771 0.0025 0.546206 0.428894 1.96306 0.00915405 38 4 1 -5.58299e-09 
1.4989 -0.673892 0.0183332 0.0025 0.546166 0.428847 1.96299 0.00915473 39 4 1 -6.65e-09 
-0.496519 -0.673979 0.0204144 0.0025 0.54612 0.428796 1.96292 0.00915549 40 4 1 -5.61843e-09 
-0.491941 -0.674078 0.0228004 0.0025 0.546069 0.428738 1.96284 0.00915635 41 4 1 -6.62738e-09 
-0.487363 -0.674189 0.0256428 0.0025 0.546012 0.428673 1.96275 0.00915731 42 4 1 -8.60739e-09 
-0.482784 -0.674314 0.028909 0.0025 0.545948 0.428601 1.96265 0.00915839 43 4 1 -8.58675e-09 
-0.478205 -0.674452 0.0323302 0.0025 0.545876 0.428521 1.96254 0.00915959 44 4 1 -7.35777e-09 
-0.473624 -0.674603 0.0355693 0.0025 0.545797 0.428433 1.96242 0.00916092 45 4 1 -7.30291e-09 
-0.469044 -0.674765 0.0382681 0.0025 0.545712 0.428338 1.96229 0.00916235 46 4 1 -4.98966e-09 
-0.464462 -0.674939 0.0400387 0.0025 0.545623 0.428239 1.96216 0.00916384 47 4 1 1.85925e-10 
-0.45988 -0.675117 0.0407115 0.0025 0.545533 0.428139 1.96202 0.00916535 48 4 1 4.62274e-09 
-0.455297 -0.675292 0.0398698 0.0025 0.545446 0.428043 1.96189 0.00916682 49 4 1 9.95124e-09 
-0.450713 -0.675453 0.0360185 0.0025 0.545367 0.427956 1.96178 0.00916813 50 4 1 2.04586e-08 
-0.446129 -0.67559 0.028352 0.0025 0.545306 0.427887 1.96168 0.00916917 51 4 1 2.76721e-08 
-0.441544 -0.675678 0.0167843 0.0025 0.545266 0.427843 1.96162 0.00916984 52 4 1 2.60676e-08 
-0.436959 -0.675754 0.0215918 0.0025 0.545249 0.427827 1.96159 0.00917012 53 5 1 1.1125e-07 
-0.432374 -0.675666 -0.0666281 0.0025 0.545325 0.427912 1.96169 0.00916885 54 4 1 1.80051e-07 
-0.42779 -0.675227 -0.112107 0.0025 0.545547 0.428156 1.96201 0.00916511 55 4 1 2.13158e-07 
-0.423209 -0.674602 -0.17613 0.0025 0.545945 0.428606 1.96258 0.00915843 56 4 1 5.94091e-07 
-0.418631 -0.673168 -0.506795 0.0025 0.546803 0.429565 1.9638 0.00914407 57 4 1 1.13598e-06 
-0.414065 -0.669997 -0.952064 0.0025 0.548473 0.431405 1.9662 0.00911621 58 4 1 1.31769e-06 
-0.409515 -0.66515 -1.28296 0.0025 0.550973 0.43415 1.96978 0.00907486 59 4 1 1.23862e-06 
-0.40499 -0.65916 -1.49986 0.0025 0.554109 0.437611 1.97425 0.0090235 60 4 1 1.3404e-06 
-0.400492 -0.652191 -1.76576 0.0025 0.557817 0.44172 1.97952 0.00896352 61 4 1 1.69056e-06 
-0.396026 -0.644013 -2.09732 0.0025 0.562184 0.446573 1.9857 0.00889388 62 4 1 2.06078e-06 
-0.391598 -0.634485 -2.4454 0.0025 0.567275 0.452245 1.99287 0.00881406 63 4 1 2.34224e-06 
-0.387212 -0.623663 -2.77222 0.0025 0.573068 0.458717 2.00099 0.00872497 64 4 1 2.43336e-06 
-0.382872 -0.611848 -3.00152 0.0025 0.579429 0.465851 2.00985 0.00862918 65 4 1 2.28235e-06 
-0.378582 -0.599525 -3.09642 0.0025 0.586128 0.473398 2.01911 0.00853056 66 4 1 2.09158e-06 
-0.374342 -0.587109 -3.14461 0.0025 0.592971 0.481147 2.0285 0.00843212 67 4 1 1.91391e-06 
-0.37015 -0.57478 -3.1332 0.0025 0.599835 0.488957 2.03786 0.00833563 68 4 1 1.72376e-06 
-0.366006 -0.562723 -3.09216 0.0025 0.606623 0.496717 2.04705 0.00824235 69 4 1 1.56972e-06 
-0.361907 -0.551006 -3.0359 0.0025 0.613286 0.50437 2.05601 0.00815281 70 4 1 1.44769e-06 
-0.357853 -0.539665 -2.97817 0.0025 0.619803 0.511888 2.06472 0.00806708 71 4 1 1.3624e-06 
-0.35384 -0.528627 -2.92862 0.0025 0.626179 0.519275 2.07318 0.00798493 72 4 1 1.27761e-06 
-0.349867 -0.517971 -2.86775 0.0025 0.632417 0.526531 2.08142 0.00790618 73 4 1 1.23791e-06 
-0.345933 -0.507564 -2.83882 0.0025 0.638541 0.533684 2.08945 0.00783035 74 4 1 1.25715e-06 
-0.342037 -0.497367 -2.83319 0.0025 0.644605 0.540795 2.09736 0.00775669 75 4 1 1.27912e-06 
-0.338177 -0.487269 -2.83917 0.0025 0.650653 0.547914 2.10521 0.00768459 76 4 1 1.3806e-06 
-0.334352 -0.477144 -2.91534 0.0025 0.656761 0.555132 2.11309 0.00761312 77 4 1 1.48538e-06 
-0.330563 -0.466859 -2.99048 0.0025 0.662995 0.562524 2.12109 0.00754153 78 4 1 1.54292e-06 
-0.32681 -0.456418 -3.07724 0.0025 0.669372 0.570113 2.12922 0.00746969 79 4 1 1.60269e-06 
-0.323093 -0.445804 -3.16768 0.0025 0.675905 0.577918 2.13751 0.00739749 80 4 1 1.64797e-06 
-0.319413 -0.434995 -3.26118 0.0025 0.682594 0.585938 2.14595 0.007325 81 4 1 1.62219e-06 
-0.315768 -0.424103 -3.30571 0.0025 0.689397 0.594127 2.15447 0.00725271 82 4 1 1.56633e-06 
-0.31216 -0.413192 -3.33993 0.0025 0.696263 0.602425 2.16303 0.0071812 83 4 1 1.54731e-06 
-0.308587 -0.402321 -3.37541 0.0025 0.703174 0.610813 2.17159 0.00711061 84 4 1 1.52409e-06 
-0.305049 -0.391436 -3.40115 0.0025 0.710119 0.619273 2.18014 0.00704107 85 4 1 1.46247e-06 
-0.301546 -0.380678 -3.39746 0.0025 0.717065 0.62777 2.18865 0.00697287 86 4 1 1.45352e-06 
-0.298076 -0.369976 -3.43506 0.0025 0.724017 0.636305 2.19711 0.00690592 87 4 1 1.40238e-06 
-0.29464 -0.359394 -3.41169 0.0025 0.730956 0.644858 2.20551 0.00684035 88 4 1 1.35574e-06 
-0.291235 -0.348946 -3.42609 0.0025 0.737867 0.65341 2.21382 0.00677629 89 4 1 1.35379e-06 
-0.287863 -0.338545 -3.43154 0.0025 0.74477 0.661983 2.22208 0.00671348 90 4 1 1.32137e-06 
-0.284522 -0.328282 -3.43713 0.0025 0.751657 0.670569 2.23028 0.00665197 91 4 1 1.3105e-06 
-0.281211 -0.318071 -3.45337 0.0025 0.758539 0.679178 2.23842 0.00659162 92 4 1 1.25443e-06 
-0.27793 -0.307981 -3.42988 0.0025 0.765393 0.687785 2.24649 0.0065326 93 4 1 1.25781e-06 
-0.274678 -0.298008 -3.46979 0.0025 0.772235 0.696408 2.2545 0.00647471 94 4 1 1.21903e-06 
-0.271455 -0.288099 -3.4357 0.0025 0.77906 0.705038 2.26245 0.00641799 95 4 1 1.17887e-06 
-0.26826 -0.278359 -3.45298 0.0025 0.785852 0.713662 2.27031 0.00636252 96 4 1 1.23012e-06 
-0.265093 -0.26859 -3.49553 0.0025 0.792665 0.722335 2.27817 0.00630784 97 4 1 1.14124e-06 
-0.261952 -0.258951 -3.44088 0.0025 0.799449 0.731004 2.28594 0.00625431 98 4 1 1.11519e-06 
-0.258838 -0.249456 -3.4735 0.0025 0.806198 0.73966 2.29364 0.00620195 99 4 1 1.1721e-06 
-0.25575 -0.239935 -3.50784 0.0025 0.812969 0.748368 2.30133 0.0061503 100 4 1 1.04999e-06 
-0.252688 -0.230566 -3.42916 0.0025 0.81969 0.757044 2.30892 0.00609987 101 4 1 1.04849e-06 
-0.24965 -0.221389 -3.4783 0.0025 0.826372 0.765702 2.31643 0.00605055 102 4 1 1.14457e-06 
-0.246637 -0.212084 -3.53307 0.0025 0.833102 0.774444 2.32396 0.00600166 103 4 1 1.01367e-06 
-0.243648 -0.202945 -3.45031 0.0025 0.839798 0.783169 2.33141 0.00595381 104 4 1 9.79393e-07 
-0.240683 -0.193998 -3.47976 0.0025 0.84644 0.791861 2.33877 0.00590709 105 4 1 1.10933e-06 
-0.237741 -0.184939 -3.57185 0.0025 0.85314 0.800645 2.34616 0.0058607 106 4 1 9.55917e-07 
-0.234822 -0.175961 -3.44813 0.0025 0.859798 0.809402 2.35346 0.00581532 107 4 1 8.5387e-07 
-0.231926 -0.167331 -3.43422 0.0025 0.866348 0.818054 2.36061 0.00577135 108 4 1 1.03726e-06 
-0.229051 -0.158587 -3.5569 0.0025 0.872947 0.826793 2.36779 0.00572772 109 4 1 1.0341e-06 
-0.226198 -0.149759 -3.55201 0.0025 0.879605 0.835625 2.375 0.00568437 110 4 1 7.79595e-07 
-0.223366 -0.141247 -3.38203 0.0025 0.886135 0.844326 2.38203 0.00564248 111 4 1 8.93319e-07 
-0.220555 -0.132915 -3.5321 0.0025 0.892636 0.853021 2.38901 0.00560139 112 4 1 1.12773e-06 
-0.217765 -0.124155 -3.67174 0.0025 0.8993 0.861938 2.39613 0.00555988 113 4 1 7.58207e-07 
-0.214995 -0.115701 -3.38707 0.0025 0.90585 0.870731 2.4031 0.00551968 114 4 1 6.02017e-07 
-0.212245 -0.107803 -3.34819 0.0025 0.912173 0.87927 2.40978 0.00548141 115 4 1 1.05329e-06 
-0.209514 -0.0995561 -3.66415 0.0025 0.918651 0.888025 2.41662 0.00544276 116 4 1 1.00159e-06 
-0.206802 -0.0910478 -3.57487 0.0025 0.925255 0.896956 2.42356 0.00540392 117 4 1 5.29708e-07 
-0.20411 -0.0831771 -3.28912 0.0025 0.931606 0.905593 2.43019 0.00536708 118 4 1 7.44667e-07 
-0.201435 -0.0754404 -3.50014 0.0025 0.937888 0.914169 2.43673 0.00533113 119 4 1 1.05721e-06 
-0.198779 -0.0672491 -3.65562 0.0025 0.944382 0.923031 2.44347 0.00529447 120 4 1 7.14292e-07 
-0.196141 -0.0592565 -3.42666 0.0025 0.950815 0.931838 2.45011 0.00525865 121 4 1 5.96607e-07 
-0.19352 -0.0516519 -3.43933 0.0025 0.957073 0.940444 2.45655 0.00522426 122 4 1 7.36621e-07 
-0.190916 -0.043937 -3.45841 0.0025 0.963293 0.949001 2.46293 0.00519053 123 4 1 3.55566e-07 
-0.188329 -0.0367223 -3.0227 0.0025 0.969235 0.957204 2.46898 0.00515871 124 4 1 5.06136e-07 
-0.185758 -0.0300453 -3.23878 0.0025 0.975059 0.965309 2.47488 0.0051279 125 4 1 1.67677e-06 
-0.183202 -0.0219172 -4.33217 0.0025 0.981663 0.974465 2.48162 0.0050934 126 4 1 9.13366e-07 
-0.180664 -0.0131008 -3.57766 0.0025 0.988373 0.983706 2.48843 0.00505882 127 4 1 -1.54451e-06 
-0.178143 -0.0077138 -1.42766 0.0025 0.993212 0.990476 2.49322 0.00503417 128 4 1 -2.09577e-07 
-0.17563 -0.00397034 -2.58603 0.0025 0.99742 0.996506 2.49738 0.00501293 129 4 1 3.43302e-06 
-0.17313 0.00465012 -5.47874 0.0025 1.00408 1.00579 2.50415 0.00497969 130 4 1 1.09677e-06 
-0.17065 0.0145874 -3.46114 0.0025 1.01115 1.0155 2.51127 0.00494489 131 4 1 -3.75086e-06 
-0.168185 0.0176739 0.249715 0.0025 1.01433 1.02003 2.5143 0.00492934 132 4 1 -1.30254e-06 
-0.165721 0.0174981 -0.951832 0.0025 1.0158 1.0223 2.51568 0.00492223 133 4 1 2.90633e-06 
-0.163263 0.0234107 -3.89751 0.0025 1.01973 1.02776 2.51969 0.00490327 134 4 1 -2.43476e-07 
-0.160818 0.0286118 -1.0295 0.0025 1.02342 1.03282 2.52337 0.00488558 135 4 1 -2.96118e-06 
-0.158377 0.0286839 0.400814 0.0025 1.02385 1.03349 2.52374 0.00488352 136 3 1 -1.40602e-06 
-0.155934 0.0270567 0.969806 0.0025 1.02247 1.03158 2.52236 0.00489013 137 4 1 -4.57465e-07 
-0.153487 0.024732 1.19835 0.0025 1.02046 1.02877 2.52037 0.00489973 138 4 1 -1.32629e-07 
-0.151034 0.0221031 1.30599 0.0025 1.01821 1.0256 2.51814 0.00491057 139 4 1 2.58529e-08 
-0.148576 0.0193601 1.33638 0.0025 1.01588 1.02231 2.51582 0.00492184 140 4 1 1.17657e-07 
-0.146112 0.0166241 1.3156 0.0025 1.01357 1.01907 2.51353 0.00493304 141 4 1 1.77877e-07 
-0.143643 0.0139845 1.25535 0.0025 1.01137 1.01596 2.51134 0.0049438 142 4 1 2.18394e-07 
-0.141169 0.0115119 1.16366 0.0025 1.00932 1.01308 2.50929 0.00495385 143 4 1 2.43649e-07 
-0.138689 0.0092624 1.04758 0.0025 1.00746 1.01048 2.50745 0.00496296 144 4 1 2.54961e-07 
-0.136206 0.00727631 0.914921 0.0025 1.00584 1.0082 2.50583 0.00497097 145 4 1 2.53027e-07 
-0.133718 0.00557638 0.774438 0.0025 1.00446 1.00626 2.50445 0.0049778 146 4 1 2.3929e-07 
-0.131228 0.00416683 0.634963 0.0025 1.00332 1.00466 2.50331 0.00498345 147 4 1 2.16306e-07 
-0.128735 0.0030348 0.504235 0.0025 1.00241 1.00339 2.50241 0.00498797 148 4 1 1.87394e-07 
-0.12624 0.00215406 0.38795 0.0025 1.00171 1.0024 2.5017 0.00499148 149 4 1 1.55983e-07 
-0.123743 0.00148991 0.289347 0.0025 1.00118 1.00166 2.50118 0.00499411 150 4 1 1.25041e-07 
-0.121246 0.00100418 0.209336 0.0025 1.00079 1.00111 2.50079 0.00499604 151 4 1 9.67322e-08 
-0.118747 0.000659425 0.147002 0.0025 1.00052 1.00073 2.50052 0.0049974 152 4 1 7.23392e-08 
-0.116248 0.00042181 0.100245 0.0025 1.00033 1.00047 2.50033 0.00499834 153 4 1 5.23646e-08 
-0.113749 0.000262721 0.0664041 0.0025 1.00021 1.00029 2.50021 0.00499897 154 4 1 3.67267e-08 
-0.111249 0.000159234 0.0427304 0.0025 1.00013 1.00018 2.50012 0.00499937 155 4 1 2.49733e-08 
-0.10875 9.38363e-05 0.0267047 0.0025 1.00007 1.0001 2.50007 0.00499963 156 4 1 1.64682e-08 
-0.10625 5.37033e-05 0.0161999 0.0025 1.00004 1.00006 2.50004 0.00499979 157 4 1 1.05312e-08 
-0.10375 2.9804e-05 0.00953067 0.0025 1.00002 1.00003 2.50002 0.00499988 158 4 1 6.52844e-09 
-0.10125 1.60082e-05 0.00543078 0.0025 1.00001 1.00002 2.50001 0.00499994 159 4 1 3.92039e-09 
-0.09875 8.30064e-06 0.002992 0.0025 1.00001 1.00001 2.50001 0.00499997 160 4 1 2.27799e-09 
-0.09625 4.14137e-06 0.00158998 0.0025 1 1 2.5 0.00499998 161 4 1 1.27876e-09 
-0.09375 1.97937e-06 0.000812404 0.0025 1 1 2.5 0.00499999 162 4 1 6.91989e-10 
-0.09125 9.00831e-07 0.000397404 0.0025 1 1 2.5 0.005 163 4 1 3.59914e-10 
-0.08875 3.87042e-07 0.000184996 0.0025 1 1 2.5 0.005 164 4 1 1.792e-10 
-0.08625 1.54974e-07 8.12406e-05 0.0025 1 1 2.5 0.005 165 4 1 8.49322e-11 
-0.08375 5.66311e-08 3.32056e-05 0.0025 1 1 2.5 0.005 166 4 1 3.80057e-11 
-0.08125 1.81822e-08 1.23491e-05 0.0025 1 1 2.5 0.005 167 4 1 1.58547e-11 
-0.07875 4.72289e-09 3.99908e-06 0.0025 1 1 2.5 0.005 168 4 1 6.0314e-12 
-0.07625 7.57906e-10 1.00747e-06 0.0025 1 1 2.5 0.005 169 4 1 2.03526e-12 
-0.07375 -6.34239e-11 9.00205e-08 0.0025 1 1 2.5 0.005 170 4 1 5.53093e-13 
-0.07125 4.58117e-11 -1.06258e-07 0.0025 1 1 2.5 0.005 171 5 1 2.93987e-14 
-0.06875 1.20236e-10 -4.56606e-09 0.0025 1 1 2.5 0.005 172 3 1 -5.71283e-14 
-0.06625 9.6567e-11 1.85515e-08 0.0025 1 1 2.5 0.005 173 4 1 -8.30802e-15 
-0.06375 5.87227e-11 1.82906e-08 0.0025 1 1 2.5 0.005 174 4 1 5.9412e-15 
-0.06125 3.01536e-11 1.20311e-08 0.0025 1 1 2.5 0.005 175 4 1 7.46745e-15 
-0.05875 1.34474e-11 6.48447e-09 0.0025 1 1 2.5 0.005 176 4 1 5.24061e-15 
-0.05625 5.18467e-12 2.98377e-09 0.0025 1 1 2.5 0.005 177 4 1 2.9484e-15 
-0.05375 1.66527e-12 1.17439e-09 0.0025 1 1 2.5 0.005 178 4 1 1.4051e-15 
-0.05125 4.01171e-13 3.80567e-10 0.0025 1 1 2.5 0.005 179 4 1 5.65592e-16 
-0.04875 3.67805e-14 8.48104e-11 0.0025 1 1 2.5 0.005 180 4 1 1.83675e-16 
-0.04625 -1.77314e-14 -1.47793e-12 0.0025 1 1 2.5 0.005 181 5 1 4.90274e-17 
-0.04375 1.17149e-15 -1.03455e-11 0.0025 1 1 2.5 0.005 182 4 1 -3.90799e-18 
-0.04125 8.24363e-15 -1.19371e-12 0.0025 1 1 2.5 0.005 183 4 1 -1.06581e-18 
-0.03875 8.51549e-15 1.7053e-13 0.0025 1 1 2.5 0.005 184 3 1 -4.9738e-18 
-0.03625 3.14301e-15 4.09273e-12 0.0025 1 1 2.5 0.005 185 5 1 -9.23706e-18 
-0.03375 -2.20292e-15 7.38964e-13 0.0025 1 1 2.5 0.005 186 4 1 -2.13163e-18 
-0.03125 1.73451e-15 -2.84217e-13 0.0025 1 1 2.5 0.005 187 3 1 4.61853e-17 
-0.02875 3.87114e-17 3.48381e-26 0.0025 1 1 2.5 0.005 188 4 1 -3.97904e-17 
-0.02625 -5.36821e-16 -5.68434e-14 0.0025 1 1 2.5 0.005 189 5 1 9.59233e-18 
-0.02375 -1.50705e-15 1.13687e-13 0.0025 1 1 2.5 0.005 190 3 1 -2.84217e-18 
-0.02125 -2.27012e-15 -5.68434e-14 0.0025 1 1 2.5 0.005 191 4 1 5.68434e-18 
-0.01875 4.4194e-16 2.84217e-13 0.0025 1 1 2.5 0.005 192 4 1 -8.52651e-18 
-0.01625 -4.50933e-16 6.25278e-13 0.0025 1 1 2.5 0.005 193 5 1 2.13163e-18 
-0.01375 8.56874e-16 -2.27374e-13 0.0025 1 1 2.5 0.005 194 3 1 4.61853e-18 
-0.01125 1.10152e-15 -1.13687e-13 0.0025 1 1 2.5 0.005 195 4 1 -2.4869e-18 
-0.00875 2.14186e-15 -2.27374e-13 0.0025 1 1 2.5 0.005 196 4 1 3.77482e-33 
-0.00625 1.47371e-15 2.84217e-13 0.0025 1 1 2.5 0.005 197 4 1 3.55271e-19 
-0.00375 1.08897e-15 2.27374e-13 0.0025 1 1 2.5 0.005 198 4 1 3.77482e-33 
-0.00125 1.32556e-15 4.93038e-29 0.0025 1 1 2.5 0.005 199 5 1 -1.42109e-18 
0.00125 1.52866e-15 1.13687e-13 0.0025 1 1 2.5 0.005 200 4 1 6.24001e-33 
0.00375 4.50856e-16 -4.54747e-13 0.0025 1 1 2.5 0.005 201 4 1 7.10543e-19 
0.00625 4.86847e-16 5.68434e-13 0.0025 1 1 2.5 0.005 202 3 1 -7.10543e-19 
0.00875 2.29335e-15 -2.27374e-13 0.0025 1 1 2.5 0.005 203 5 1 -7.10543e-19 
0.01125 1.28795e-15 -5.11591e-13 0.0025 1 1 2.5 0.005 204 4 1 2.13163e-18 
0.01375 1.28786e-15 3.97904e-13 0.0025 1 1 2.5 0.005 205 5 1 -4.61853e-18 
0.01625 2.23165e-15 -1.11427e-27 0.0025 1 1 2.5 0.005 206 5 1 -7.10543e-19 
0.01875 9.24027e-16 5.68434e-14 0.0025 1 1 2.5 0.005 207 4 1 1.06581e-18 
0.02125 -2.25694e-16 -2.27374e-13 0.0025 1 1 2.5 0.005 208 3 1 -4.26326e-18 
0.02375 2.77329e-15 6.82121e-13 0.0025 1 1 2.5 0.005 209 3 1 1.35003e-17 
0.02625 1.97066e-15 -1.7053e-13 0.0025 1 1 2.5 0.005 210 5 1 -1.98952e-17 
0.02875 2.22436e-15 -4.54747e-13 0.0025 1 1 2.5 0.005 211 4 1 8.52651e-18 
0.03125 1.78655e-15 9.43675e-27 0.0025 1 1 2.5 0.005 212 3 1 2.20268e-17 
0.03375 -3.02754e-16 7.38964e-13 0.0025 1 1 2.5 0.005 213 5 1 -1.38556e-17 
0.03625 3.33666e-15 -1.93268e-12 0.0025 1 1 2.5 0.005 214 5 1 -7.81597e-18 
0.03875 9.25884e-16 -3.0127e-12 0.0025 1 1 2.5 0.005 215 3 1 1.81188e-17 
0.04125 -8.33928e-15 -5.68434e-14 0.0025 1 1 2.5 0.005 216 4 1 -1.7053e-17 
0.04375 5.11582e-16 1.07434e-11 0.0025 1 1 2.5 0.005 217 4 1 -1.03029e-17 
0.04625 2.66538e-14 2.72848e-12 0.0025 1 1 2.5 0.005 218 5 1 5.96856e-17 
0.04875 -3.39378e-14 -8.18545e-11 0.0025 1 1 2.5 0.005 219 4 1 1.84386e-16 
0.05125 -3.93183e-13 -3.82045e-10 0.0025 1 1 2.5 0.005 220 4 1 5.61684e-16 
0.05375 -1.65834e-12 -1.17421e-09 0.0025 1 1 2.5 0.005 221 4 1 1.40723e-15 
0.05625 -5.17684e-12 -2.98223e-09 0.0025 1 1 2.5 0.005 222 4 1 2.96865e-15 
0.05875 -1.34417e-11 -6.48515e-09 0.0025 1 1 2.5 0.005 223 4 1 5.17133e-15 
0.06125 -3.01521e-11 -1.20337e-08 0.0025 1 1 2.5 0.005 224 4 1 7.53424e-15 
0.06375 -5.87111e-11 -1.82862e-08 0.0025 1 1 2.5 0.005 225 4 1 5.93445e-15 
