# Time [s]: 0.272763
# Columns: pos [m], vel [m/s], acc [m/s^2], mass [kg], dens [kg/m^3], pres [Pa], ene [J/kg], sml [m], id, neighbor, alpha, gradh, ...additional?
1.31863 -0.673115 0.000476907 0.0025 0.511041 0.432715 2.15248 0.00978396 0 4 1 -0.000134225 
1.32341 -0.673119 0.000559865 0.0025 0.536897 0.426177 1.95002 0.00931278 1 4 1 0.00017925 
1.32795 -0.673122 0.00064305 0.0025 0.548225 0.430846 1.96848 0.00912034 2 3 1 -1.90587e-05 
1.33253 -0.673126 0.000732275 0.0025 0.545959 0.42918 1.96463 0.00915819 3 5 1 3.4857e-06 
1.33711 -0.673129 0.000824345 0.0025 0.546356 0.429333 1.96456 0.00915154 4 4 1 -1.38918e-07 
1.34168 -0.673133 0.000913248 0.0025 0.546365 0.429302 1.96433 0.00915139 5 4 1 1.43493e-07 
1.34626 -0.673136 0.000992305 0.0025 0.546386 0.429299 1.96426 0.00915103 6 4 1 -3.72503e-09 
1.35083 -0.67314 0.00106019 0.0025 0.546398 0.429294 1.9642 0.00915085 7 4 1 8.04287e-09 
1.35541 -0.673144 0.00112435 0.0025 0.54641 0.429291 1.96414 0.00915065 8 4 1 4.57827e-09 
1.35999 -0.673149 0.00119716 0.0025 0.54642 0.429287 1.96409 0.00915048 9 4 1 5.26944e-09 
1.36456 -0.673154 0.00128628 0.0025 0.546428 0.429284 1.96405 0.00915033 10 4 1 -2.48178e-09 
1.36914 -0.673159 0.00138731 0.0025 0.546437 0.429281 1.964 0.00915019 11 4 1 4.46037e-09 
1.37371 -0.673165 0.00148742 0.0025 0.546444 0.429277 1.96396 0.00915007 12 4 1 2.58162e-09 
1.37829 -0.673171 0.00157874 0.0025 0.546449 0.429273 1.96392 0.00914998 13 4 1 3.31353e-09 
1.38286 -0.673178 0.0016691 0.0025 0.546454 0.429269 1.96388 0.0091499 14 4 1 1.85326e-09 
1.38744 -0.673185 0.00177799 0.0025 0.546458 0.429264 1.96385 0.00914984 15 4 1 -1.89584e-09 
1.39201 -0.673194 0.00191914 0.0025 0.546461 0.429259 1.96381 0.00914979 16 4 1 4.51592e-09 
1.39659 -0.673202 0.00208678 0.0025 0.546463 0.429254 1.96379 0.00914976 17 4 1 1.03704e-09 
1.40116 -0.673212 0.00226073 0.0025 0.546463 0.429248 1.96376 0.00914974 18 4 1 -1.65735e-09 
1.40573 -0.673222 0.00242741 0.0025 0.546464 0.429242 1.96373 0.00914974 19 3 1 2.23956e-09 
1.41031 -0.673233 0.00259602 0.0025 0.546463 0.429236 1.9637 0.00914974 20 4 1 6.88306e-10 
1.41488 -0.673245 0.00279326 0.0025 0.546462 0.429229 1.96367 0.00914977 21 4 1 6.3191e-10 
1.41946 -0.673258 0.00304125 0.0025 0.546459 0.429221 1.96365 0.00914981 22 4 1 3.73909e-10 
1.42403 -0.673272 0.00333937 0.0025 0.546456 0.429213 1.96362 0.00914987 23 4 1 -9.76467e-10 
1.42861 -0.673288 0.00366588 0.0025 0.546452 0.429204 1.96359 0.00914994 24 4 1 5.9677e-10 
1.43318 -0.673305 0.00399669 0.0025 0.546446 0.429194 1.96357 0.00915003 25 4 1 -1.75e-10 
1.43776 -0.673323 0.00432762 0.0025 0.54644 0.429183 1.96354 0.00915014 26 4 1 -1.30577e-09 
1.44233 -0.673343 0.00468619 0.0025 0.546432 0.429171 1.96351 0.00915026 27 4 1 1.70903e-10 
1.44691 -0.673366 0.00512346 0.0025 0.546424 0.429158 1.96348 0.00915041 28 4 1 -4.13517e-10 
1.45149 -0.673391 0.00568232 0.0025 0.546413 0.429144 1.96346 0.00915058 29 4 1 -2.36425e-09 
1.45606 -0.673418 0.00635648 0.0025 0.546402 0.429128 1.96343 0.00915077 30 4 1 -1.38988e-09 
1.46064 -0.673447 0.00708016 0.0025 0.546389 0.42911 1.96339 0.009151 31 4 1 -9.54504e-11 
1.46521 -0.67348 0.00778538 0.0025 0.546373 0.42909 1.96336 0.00915126 32 4 1 -2.98053e-09 
1.46979 -0.673517 0.00849744 0.0025 0.546355 0.429069 1.96332 0.00915155 33 4 1 -3.11588e-09 
1.47436 -0.673558 0.00936139 0.0025 0.546336 0.429045 1.96328 0.00915188 34 4 1 -6.58391e-10 
1.47894 -0.673605 0.0105282 0.0025 0.546314 0.429018 1.96324 0.00915225 35 4 1 -3.7619e-09 
1.48352 -0.673656 0.0120017 0.0025 0.546289 0.428989 1.9632 0.00915267 36 4 1 -5.19591e-09 
1.48809 -0.673713 0.0136378 0.0025 0.54626 0.428955 1.96314 0.00915315 37 4 1 -3.37405e-09 
1.49267 -0.673777 0.0153115 0.0025 0.546227 0.428916 1.96309 0.00915371 38 4 1 -4.95527e-09 
1.49725 -0.673848 0.0170466 0.0025 0.546189 0.428873 1.96303 0.00915434 39 4 1 -6.08905e-09 
-0.498177 -0.67393 0.0189939 0.0025 0.546147 0.428825 1.96296 0.00915505 40 4 1 -5.26721e-09 
-0.4936 -0.674023 0.0213311 0.0025 0.546099 0.428771 1.96288 0.00915585 41 4 1 -6.48783e-09 
-0.489022 -0.674128 0.0241379 0.0025 0.546045 0.42871 1.9628 0.00915675 42 4 1 -8.54725e-09 
-0.484443 -0.674245 0.0273001 0.0025 0.545985 0.428642 1.9627 0.00915776 43 4 1 -8.50704e-09 
-0.479864 -0.674374 0.0305808 0.0025 0.545917 0.428566 1.9626 0.0091589 44 4 1 -7.37182e-09 
-0.475284 -0.674517 0.0337417 0.0025 0.545842 0.428482 1.96249 0.00916016 45 4 1 -7.67362e-09 
-0.470704 -0.674673 0.036546 0.0025 0.54576 0.428391 1.96236 0.00916153 46 4 1 -6.1025e-09 
-0.466122 -0.674842 0.0388422 0.0025 0.545674 0.428295 1.96223 0.00916299 47 4 1 -2.09097e-09 
-0.461541 -0.675017 0.0404442 0.0025 0.545584 0.428196 1.9621 0.00916449 48 4 1 1.50878e-09 
-0.456958 -0.675193 0.0403966 0.0025 0.545496 0.428098 1.96197 0.00916598 49 4 1 6.8645e-09 
-0.452375 -0.675362 0.0375967 0.0025 0.545413 0.428006 1.96184 0.00916737 50 4 1 1.48577e-08 
-0.447791 -0.675514 0.0329246 0.0025 0.545342 0.427927 1.96173 0.00916856 51 4 1 2.51801e-08 
-0.443206 -0.67563 0.0231975 0.0025 0.545291 0.42787 1.96166 0.00916942 52 4 1 2.30219e-08 
-0.438621 -0.675698 0.0177213 0.0025 0.54526 0.427836 1.96161 0.00916995 53 5 1 5.05478e-08 
-0.434036 -0.675757 -0.00512797 0.0025 0.545272 0.427852 1.96162 0.00916974 54 4 1 1.54868e-07 
-0.429451 -0.675491 -0.0981811 0.0025 0.54541 0.428005 1.96181 0.00916741 55 4 1 1.85938e-07 
-0.424869 -0.674957 -0.125408 0.0025 0.545701 0.428329 1.96223 0.00916252 56 4 1 3.27796e-07 
-0.420289 -0.674132 -0.289181 0.0025 0.546256 0.428955 1.96302 0.00915322 57 4 1 8.29565e-07 
-0.415715 -0.672029 -0.696082 0.0025 0.547433 0.43026 1.9647 0.00913353 58 4 1 1.25289e-06 
-0.411155 -0.6681 -1.1058 0.0025 0.549465 0.432493 1.96762 0.00909976 59 4 1 1.28358e-06 
-0.406616 -0.662697 -1.37634 0.0025 0.552246 0.435552 1.97159 0.00905394 60 4 1 1.24517e-06 
-0.402101 -0.656325 -1.60057 0.0025 0.555612 0.439274 1.97639 0.00899908 61 4 1 1.44904e-06 
-0.397616 -0.64891 -1.88753 0.0025 0.559568 0.443663 1.982 0.00893546 62 4 1 1.81286e-06 
-0.393166 -0.640225 -2.22264 0.0025 0.5642 0.448816 1.98854 0.0088621 63 4 1 2.15678e-06 
-0.388754 -0.630233 -2.56555 0.0025 0.569546 0.454778 1.99606 0.00877893 64 4 1 2.36564e-06 
-0.384387 -0.619058 -2.85253 0.0025 0.575541 0.461487 2.00444 0.00868747 65 4 1 2.35469e-06 
-0.380066 -0.607062 -3.02677 0.0025 0.58201 0.468754 2.01342 0.00859092 66 4 1 2.17698e-06 
-0.375795 -0.594789 -3.09611 0.0025 0.588731 0.476341 2.02269 0.00849284 67 4 1 1.98937e-06 
-0.371573 -0.582474 -3.11969 0.0025 0.595541 0.484066 2.03201 0.00839573 68 4 1 1.81125e-06 
-0.367399 -0.570336 -3.09522 0.0025 0.60233 0.491804 2.04124 0.0083011 69 4 1 1.63995e-06 
-0.363272 -0.558493 -3.0495 0.0025 0.609023 0.499469 2.05028 0.00820987 70 4 1 1.48991e-06 
-0.359189 -0.546998 -2.9847 0.0025 0.615578 0.50701 2.05908 0.00812245 71 4 1 1.40434e-06 
-0.355149 -0.535859 -2.94671 0.0025 0.621996 0.514425 2.06763 0.00803863 72 4 1 1.31039e-06 
-0.35115 -0.525034 -2.87766 0.0025 0.628276 0.52171 2.07596 0.00795828 73 4 1 1.23959e-06 
-0.347191 -0.514548 -2.83962 0.0025 0.634424 0.528872 2.08405 0.00788117 74 4 1 1.22774e-06 
-0.343269 -0.50431 -2.81181 0.0025 0.640479 0.535954 2.09198 0.00780665 75 4 1 1.23355e-06 
-0.339384 -0.494209 -2.8083 0.0025 0.646483 0.543002 2.0998 0.00773415 76 4 1 1.2855e-06 
-0.335535 -0.484216 -2.8355 0.0025 0.652493 0.550086 2.10759 0.00766292 77 4 1 1.39046e-06 
-0.331721 -0.474119 -2.91247 0.0025 0.658584 0.55729 2.11543 0.00759204 78 4 1 1.4814e-06 
-0.327942 -0.463882 -2.99125 0.0025 0.664807 0.564677 2.1234 0.00752098 79 4 1 1.53123e-06 
-0.3242 -0.453478 -3.07323 0.0025 0.671173 0.572261 2.13151 0.00744964 80 4 1 1.59428e-06 
-0.320493 -0.442913 -3.17148 0.0025 0.677696 0.580061 2.13977 0.00737794 81 4 1 1.61441e-06 
-0.316822 -0.432159 -3.24259 0.0025 0.684361 0.588062 2.14816 0.00730608 82 4 1 1.58133e-06 
-0.313186 -0.42135 -3.29094 0.0025 0.691125 0.596211 2.15663 0.00723458 83 4 1 1.52668e-06 
-0.309587 -0.410542 -3.31088 0.0025 0.69794 0.604457 2.16511 0.00716394 84 4 1 1.51851e-06 
-0.306022 -0.39976 -3.35939 0.0025 0.704799 0.612789 2.17359 0.00709422 85 4 1 1.48727e-06 
-0.302492 -0.388991 -3.36659 0.0025 0.711686 0.621187 2.18206 0.00702557 86 4 1 1.43643e-06 
-0.298997 -0.37837 -3.38263 0.0025 0.718575 0.62962 2.19049 0.00695822 87 4 1 1.41812e-06 
-0.295534 -0.367768 -3.39656 0.0025 0.725465 0.638087 2.19886 0.00689213 88 4 1 1.35279e-06 
-0.292104 -0.35731 -3.37727 0.0025 0.73233 0.646555 2.20716 0.00682752 89 4 1 1.3405e-06 
-0.288706 -0.346958 -3.40314 0.0025 0.739177 0.655034 2.21539 0.00676428 90 4 1 1.32309e-06 
-0.28534 -0.336682 -3.39554 0.0025 0.746014 0.663531 2.22356 0.00670228 91 4 1 1.29136e-06 
-0.282004 -0.32652 -3.40998 0.0025 0.752836 0.672041 2.23167 0.00664156 92 4 1 1.28984e-06 
-0.278698 -0.316407 -3.42432 0.0025 0.759656 0.680578 2.23974 0.00658193 93 4 1 1.23073e-06 
-0.275422 -0.306464 -3.40296 0.0025 0.766449 0.689114 2.24773 0.00652359 94 4 1 1.22966e-06 
-0.272174 -0.296559 -3.43753 0.0025 0.773229 0.697662 2.25566 0.00646639 95 4 1 1.18462e-06 
-0.268955 -0.286772 -3.39979 0.0025 0.779985 0.70621 2.26352 0.00641038 96 4 1 1.16414e-06 
-0.265764 -0.277126 -3.42979 0.0025 0.786715 0.714758 2.27131 0.00635554 97 4 1 1.20295e-06 
-0.2626 -0.267435 -3.45721 0.0025 0.793464 0.723354 2.27908 0.00630148 98 4 1 1.11368e-06 
-0.259462 -0.257909 -3.41195 0.0025 0.800182 0.731942 2.28678 0.00624858 99 4 1 1.10183e-06 
-0.256351 -0.248507 -3.44486 0.0025 0.80687 0.740525 2.29441 0.00619678 100 4 1 1.15056e-06 
-0.253265 -0.239064 -3.4781 0.0025 0.813582 0.749158 2.30202 0.00614566 101 4 1 1.02277e-06 
-0.250205 -0.22981 -3.39297 0.0025 0.820239 0.757754 2.30954 0.00609578 102 4 1 1.03515e-06 
-0.24717 -0.220712 -3.45578 0.0025 0.826862 0.766338 2.31698 0.00604696 103 4 1 1.12807e-06 
-0.244158 -0.2115 -3.50106 0.0025 0.833537 0.775009 2.32444 0.00599853 104 4 1 9.89261e-07 
-0.241171 -0.202449 -3.42006 0.0025 0.840171 0.783656 2.33182 0.00595117 105 4 1 9.52438e-07 
-0.238207 -0.193587 -3.43958 0.0025 0.846747 0.792263 2.33911 0.00590495 106 4 1 1.09189e-06 
-0.235266 -0.184593 -3.54461 0.0025 0.853383 0.800965 2.34642 0.00585903 107 4 1 9.49133e-07 
-0.232348 -0.175712 -3.42091 0.0025 0.859987 0.80965 2.35367 0.00581404 108 4 1 8.339e-07 
-0.229452 -0.167142 -3.40209 0.0025 0.866479 0.818227 2.36076 0.00577048 109 4 1 1.00951e-06 
-0.226577 -0.158514 -3.51726 0.0025 0.873013 0.826881 2.36786 0.00572729 110 4 1 1.0312e-06 
-0.223724 -0.149742 -3.53584 0.0025 0.879616 0.83564 2.37501 0.0056843 111 4 1 7.65598e-07 
-0.220893 -0.141285 -3.3459 0.0025 0.886095 0.844271 2.38199 0.00564274 112 4 1 8.54444e-07 
-0.218082 -0.133055 -3.48668 0.0025 0.892525 0.852872 2.38889 0.00560208 113 4 1 1.12091e-06 
-0.215291 -0.124406 -3.64659 0.0025 0.899127 0.861707 2.39595 0.00556095 114 4 1 7.79835e-07 
-0.21252 -0.115954 -3.38562 0.0025 0.905643 0.870451 2.40288 0.00552094 115 4 1 5.66443e-07 
-0.20977 -0.108113 -3.29606 0.0025 0.911915 0.878918 2.40951 0.00548297 116 4 1 9.95095e-07 
-0.207037 -0.100028 -3.60593 0.0025 0.918305 0.887558 2.41625 0.00544481 117 4 1 1.03103e-06 
-0.204325 -0.0915609 -3.57888 0.0025 0.924857 0.896418 2.42314 0.00540624 118 4 1 5.52051e-07 
-0.201631 -0.0836698 -3.27793 0.0025 0.931187 0.905021 2.42975 0.00536949 119 4 1 6.66265e-07 
-0.198955 -0.0760516 -3.41814 0.0025 0.937394 0.913494 2.43621 0.00533394 120 4 1 1.03477e-06 
-0.196297 -0.0679797 -3.63124 0.0025 0.943804 0.922242 2.44287 0.00529771 121 4 1 7.61279e-07 
-0.193657 -0.0599921 -3.42455 0.0025 0.950204 0.931 2.44949 0.00526203 122 4 1 5.59332e-07 
-0.191035 -0.0524532 -3.37907 0.0025 0.956415 0.939539 2.45587 0.00522786 123 4 1 7.57455e-07 
-0.18843 -0.0448105 -3.48773 0.0025 0.962608 0.948061 2.46223 0.00519422 124 4 1 4.49118e-07 
-0.185841 -0.0374535 -3.0957 0.0025 0.968593 0.95631 2.46833 0.00516213 125 4 1 2.87191e-07 
-0.183267 -0.0309147 -2.99528 0.0025 0.974287 0.964228 2.4741 0.00513196 126 4 1 1.41855e-06 
-0.180709 -0.0233615 -4.0927 0.0025 0.980589 0.972988 2.48051 0.00509898 127 4 1 1.44806e-06 
-0.178168 -0.0143697 -4.03873 0.0025 0.987445 0.982435 2.48749 0.00506357 128 4 1 -1.12833e-06 
-0.175645 -0.00794486 -1.77251 0.0025 0.992771 0.989832 2.49281 0.00503641 129 4 1 -1.08978e-06 
-0.173132 -0.0046142 -1.79742 0.0025 0.996682 0.99544 2.49664 0.00501665 130 4 1 2.75922e-06 
-0.170628 0.00239548 -4.96523 0.0025 1.00253 1.00366 2.50257 0.00498736 131 4 1 2.4222e-06 
-0.168144 0.012915 -4.47671 0.0025 1.00993 1.01385 2.51006 0.00495082 132 4 1 -2.9279e-06 
-0.165678 0.0178881 -0.5038 0.0025 1.01423 1.01984 2.51424 0.00492985 133 4 1 -2.63924e-06 
-0.163215 0.0175706 0.122491 0.0025 1.01555 1.02191 2.51543 0.00492345 134 4 1 2.2807e-06 
-0.160754 0.0216826 -3.63618 0.0025 1.0187 1.02634 2.51863 0.00490824 135 4 1 9.49232e-07 
-0.158306 0.0277781 -1.77522 0.0025 1.02271 1.03183 2.52267 0.00488899 136 4 1 -2.73893e-06 
-0.155865 0.0286627 0.258878 0.0025 1.02382 1.03342 2.52371 0.00488369 137 3 1 -1.77468e-06 
-0.153423 0.027322 0.855228 0.0025 1.0227 1.03191 2.52259 0.004889 138 4 1 -5.81216e-07 
-0.150976 0.0251464 1.14409 0.0025 1.02083 1.02928 2.52073 0.00489799 139 4 1 -1.91427e-07 
-0.148525 0.0225947 1.27607 0.0025 1.01863 1.02619 2.51856 0.00490853 140 4 1 -9.13614e-09 
-0.146068 0.0198865 1.32527 0.0025 1.01633 1.02294 2.51627 0.00491967 141 4 1 9.68834e-08 
-0.143605 0.0171579 1.31577 0.0025 1.01403 1.0197 2.51398 0.00493084 142 4 1 1.64333e-07 
-0.141137 0.0145064 1.26394 0.0025 1.01181 1.01658 2.51177 0.00494166 143 4 1 2.09338e-07 
-0.138663 0.0120073 1.17871 0.0025 1.00973 1.01366 2.50971 0.00495183 144 4 1 2.37608e-07 
-0.136185 0.00971944 1.0678 0.0025 1.00784 1.01101 2.50782 0.0049611 145 4 1 2.51431e-07 
-0.133702 0.00768596 0.939022 0.0025 1.00618 1.00867 2.50616 0.00496931 146 4 1 2.51905e-07 
-0.131216 0.0059326 0.800894 0.0025 1.00475 1.00667 2.50474 0.00497637 147 4 1 2.40481e-07 
-0.128726 0.004467 0.662093 0.0025 1.00356 1.005 2.50356 0.00498224 148 4 1 2.19513e-07 
-0.126233 0.00327978 0.530424 0.0025 1.00261 1.00366 2.5026 0.00498699 149 4 1 1.92102e-07 
-0.123739 0.0023477 0.411878 0.0025 1.00186 1.00262 2.50186 0.0049907 150 4 1 1.61567e-07 
-0.121243 0.00163819 0.310138 0.0025 1.0013 1.00182 2.50129 0.00499352 151 4 1 1.30886e-07 
-0.118745 0.00111425 0.226587 0.0025 1.00088 1.00124 2.50088 0.0049956 152 4 1 1.02335e-07 
-0.116247 0.000738663 0.160719 0.0025 1.00058 1.00082 2.50058 0.00499709 153 4 1 7.73524e-08 
-0.113748 0.000477168 0.110729 0.0025 1.00038 1.00053 2.50037 0.00499812 154 4 1 5.66009e-08 
-0.111249 0.000300267 0.0741245 0.0025 1.00024 1.00033 2.50024 0.00499882 155 4 1 4.01337e-08 
-0.108749 0.000183961 0.0482186 0.0025 1.00014 1.0002 2.50014 0.00499928 156 4 1 2.75946e-08 
-0.10625 0.000109648 0.0304759 0.0025 1.00009 1.00012 2.50009 0.00499957 157 4 1 1.84046e-08 
-0.10375 6.35167e-05 0.0187067 0.0025 1.00005 1.00007 2.50005 0.00499975 158 4 1 1.1908e-08 
-0.10125 3.57114e-05 0.0111433 0.0025 1.00003 1.00004 2.50003 0.00499986 159 4 1 7.47236e-09 
-0.0987499 1.94537e-05 0.00643461 0.0025 1.00002 1.00002 2.50002 0.00499992 160 4 1 4.54491e-09 
-0.09625 1.02448e-05 0.00359624 0.0025 1.00001 1.00001 2.50001 0.00499996 161 4 1 2.6769e-09 
-0.09375 5.20047e-06 0.00194129 0.0025 1 1.00001 2.5 0.00499998 162 4 1 1.52469e-09 
-0.09125 2.53486e-06 0.00100936 0.0025 1 1 2.5 0.00499999 163 4 1 8.38218e-10 
-0.08875 1.18028e-06 0.000503606 0.0025 1 1 2.5 0.005 164 4 1 4.43652e-10 
-0.08625 5.21188e-07 0.000239885 0.0025 1 1 2.5 0.005 165 4 1 2.25283e-10 
-0.08375 2.15964e-07 0.000108298 0.0025 1 1 2.5 0.005 166 4 1 1.09227e-10 
-0.08125 8.25993e-08 4.58372e-05 0.0025 1 1 2.5 0.005 167 4 1 5.02198e-11 
-0.07875 2.83481e-08 1.78718e-05 0.0025 1 1 2.5 0.005 168 4 1 2.16743e-11 
-0.07625 8.25816e-09 6.21807e-06 0.0025 1 1 2.5 0.005 169 4 1 8.63927e-12 
-0.07375 1.76685e-09 1.8011e-06 0.0025 1 1 2.5 0.005 170 4 1 3.08091e-12 
-0.07125 1.18455e-10 3.72613e-07 0.0025 1 1 2.5 0.005 171 4 1 9.60267e-13 
-0.06875 -4.01666e-11 -1.02166e-07 0.0025 1 1 2.5 0.005 172 5 1 1.86585e-13 
-0.06625 9.67731e-11 -3.54336e-08 0.0025 1 1 2.5 0.005 173 4 1 -5.38542e-14 
-0.06375 1.00744e-10 9.5111e-09 0.0025 1 1 2.5 0.005 174 3 1 -2.36778e-14 
-0.06125 6.84716e-11 1.80151e-08 0.0025 1 1 2.5 0.005 175 4 1 1.60121e-15 
-0.05875 3.78604e-11 1.35641e-08 0.0025 1 1 2.5 0.005 176 4 1 6.77147e-15 
-0.05625 1.80561e-11 7.97291e-09 0.0025 1 1 2.5 0.005 177 4 1 5.77529e-15 
-0.05375 7.49296e-12 3.94567e-09 0.0025 1 1 2.5 0.005 178 4 1 3.57403e-15 
-0.05125 2.65391e-12 1.68279e-09 0.0025 1 1 2.5 0.005 179 4 1 1.82467e-15 
-0.04875 7.51833e-13 6.06576e-10 0.0025 1 1 2.5 0.005 180 4 1 7.90124e-16 
-0.04625 1.37533e-13 1.67688e-10 0.0025 1 1 2.5 0.005 181 4 1 3.03757e-16 
-0.04375 -7.238e-15 2.65459e-11 0.0025 1 1 2.5 0.005 182 4 1 8.3844e-17 
-0.04125 -1.07933e-14 -1.19371e-11 0.0025 1 1 2.5 0.005 183 5 1 1.42109e-17 
-0.03875 5.10694e-15 -6.36646e-12 0.0025 1 1 2.5 0.005 184 4 1 -4.61853e-18 
-0.03625 8.54454e-15 -3.97904e-13 0.0025 1 1 2.5 0.005 185 4 1 -1.66978e-17 
-0.03375 5.83839e-15 5.28644e-12 0.0025 1 1 2.5 0.005 186 3 1 -2.84217e-18 
-0.03125 1.22752e-15 6.82121e-13 0.0025 1 1 2.5 0.005 187 4 1 4.68958e-17 
-0.02875 -1.71056e-16 -1.13687e-13 0.0025 1 1 2.5 0.005 188 4 1 -3.73035e-17 
-0.02625 -6.5919e-16 -1.13687e-13 0.0025 1 1 2.5 0.005 189 5 1 9.23706e-18 
-0.02375 -1.40216e-15 -1.93271e-27 0.0025 1 1 2.5 0.005 190 3 1 -2.84217e-18 
-0.02125 -2.23515e-15 5.68434e-14 0.0025 1 1 2.5 0.005 191 4 1 5.32907e-18 
-0.01875 1.2111e-15 2.84217e-13 0.0025 1 1 2.5 0.005 192 4 1 -7.4607e-18 
-0.01625 5.45469e-16 4.54747e-13 0.0025 1 1 2.5 0.005 193 4 1 1.42109e-18 
-0.01375 7.6942e-16 7.38964e-13 0.0025 1 1 2.5 0.005 194 4 1 4.61853e-18 
-0.01125 1.38135e-15 -1.25056e-12 0.0025 1 1 2.5 0.005 195 5 1 -2.4869e-18 
-0.00875 9.18064e-16 6.82121e-13 0.0025 1 1 2.5 0.005 196 3 1 3.55271e-19 
-0.00625 1.9632e-15 -2.84217e-13 0.0025 1 1 2.5 0.005 197 4 1 -1.06581e-18 
-0.00375 1.78822e-15 -1.13687e-13 0.0025 1 1 2.5 0.005 198 3 1 -1.06581e-18 
-0.00125 1.36053e-15 -8.87469e-29 0.0025 1 1 2.5 0.005 199 5 1 -1.42109e-18 
0.00125 6.19607e-16 -3.54987e-28 0.0025 1 1 2.5 0.005 200 3 1 -1.06581e-18 
0.00375 7.65517e-16 6.82121e-13 0.0025 1 1 2.5 0.005 201 4 1 1.2326e-33 
0.00625 1.88542e-15 -4.54747e-13 0.0025 1 1 2.5 0.005 202 5 1 -7.10543e-19 
0.00875 6.15053e-16 -6.01506e-28 0.0025 1 1 2.5 0.005 203 4 1 3.55271e-19 
0.01125 1.09576e-15 -4.54747e-13 0.0025 1 1 2.5 0.005 204 3 1 2.13163e-18 
0.01375 1.51499e-15 9.09495e-13 0.0025 1 1 2.5 0.005 205 5 1 -4.26326e-18 
0.01625 2.52892e-15 -1.53477e-12 0.0025 1 1 2.5 0.005 206 4 1 -1.06581e-18 
0.01875 1.30857e-15 1.3074e-12 0.0025 1 1 2.5 0.005 207 4 1 1.06581e-18 
0.02125 1.06793e-15 4.54747e-13 0.0025 1 1 2.5 0.005 208 3 1 -2.84217e-18 
0.02375 1.3747e-15 -1.13687e-13 0.0025 1 1 2.5 0.005 209 4 1 1.45661e-17 
0.02625 1.41135e-15 -1.3074e-12 0.0025 1 1 2.5 0.005 210 4 1 -2.13163e-17 
0.02875 2.69635e-15 6.25278e-13 0.0025 1 1 2.5 0.005 211 3 1 8.52651e-18 
0.03125 1.92641e-15 1.13687e-13 0.0025 1 1 2.5 0.005 212 3 1 2.20268e-17 
0.03375 6.23744e-16 -3.41061e-13 0.0025 1 1 2.5 0.005 213 5 1 -1.24345e-17 
0.03625 -3.70809e-15 -4.94538e-12 0.0025 1 1 2.5 0.005 214 4 1 -1.06581e-17 
0.03875 -6.1367e-15 3.35376e-12 0.0025 1 1 2.5 0.005 215 3 1 8.52651e-18 
0.04125 1.45259e-14 1.69962e-11 0.0025 1 1 2.5 0.005 216 5 1 3.19744e-18 
0.04375 1.28197e-14 -2.68869e-11 0.0025 1 1 2.5 0.005 217 4 1 8.49099e-17 
0.04625 -1.29432e-13 -1.67745e-10 0.0025 1 1 2.5 0.005 218 4 1 3.12994e-16 
0.04875 -7.44411e-13 -6.07372e-10 0.0025 1 1 2.5 0.005 219 4 1 7.87637e-16 
0.05125 -2.6486e-12 -1.68001e-09 0.0025 1 1 2.5 0.005 220 4 1 1.82219e-15 
0.05375 -7.48395e-12 -3.94886e-09 0.0025 1 1 2.5 0.005 221 4 1 3.57545e-15 
0.05625 -1.80497e-11 -7.96956e-09 0.0025 1 1 2.5 0.005 222 4 1 5.79448e-15 
0.05875 -3.78554e-11 -1.35657e-08 0.0025 1 1 2.5 0.005 223 4 1 6.69758e-15 
0.06125 -6.84639e-11 -1.8014e-08 0.0025 1 1 2.5 0.005 224 4 1 1.67475e-15 
