# Time [s]: 0.273379
# Columns: pos [m], vel [m/s], acc [m/s^2], mass [kg], dens [kg/m^3], pres [Pa], ene [J/kg], sml [m], id, neighbor, alpha, gradh, ...additional?
1.31822 -0.673115 0.000477101 0.0025 0.511041 0.432715 2.15249 0.00978395 0 4 1 -0.000134225 
1.323 -0.673119 0.000559703 0.0025 0.536897 0.426177 1.95002 0.00931278 1 4 1 0.00017925 
1.32754 -0.673122 0.000642568 0.0025 0.548226 0.430846 1.96848 0.00912033 2 3 1 -1.90587e-05 
1.33212 -0.673125 0.000731151 0.0025 0.545959 0.42918 1.96463 0.00915819 3 5 1 3.48571e-06 
1.33669 -0.673129 0.000821683 0.0025 0.546356 0.429334 1.96456 0.00915154 4 4 1 -1.38913e-07 
1.34127 -0.673132 0.00090791 0.0025 0.546365 0.429302 1.96433 0.00915138 5 4 1 1.435e-07 
1.34584 -0.673136 0.000983767 0.0025 0.546387 0.429299 1.96426 0.00915103 6 4 1 -3.71722e-09 
1.35042 -0.67314 0.00104922 0.0025 0.546398 0.429294 1.9642 0.00915084 7 4 1 8.04876e-09 
1.355 -0.673144 0.00111268 0.0025 0.54641 0.429291 1.96414 0.00915064 8 4 1 4.58045e-09 
1.35957 -0.673148 0.00118615 0.0025 0.54642 0.429288 1.96409 0.00915047 9 4 1 5.26914e-09 
1.36415 -0.673153 0.00127552 0.0025 0.546429 0.429285 1.96405 0.00915032 10 4 1 -2.48089e-09 
1.36872 -0.673158 0.00137481 0.0025 0.546437 0.429281 1.964 0.00915019 11 4 1 4.46547e-09 
1.3733 -0.673164 0.00147141 0.0025 0.546444 0.429277 1.96396 0.00915006 12 4 1 2.59002e-09 
1.37787 -0.67317 0.00155958 0.0025 0.54645 0.429273 1.96392 0.00914997 13 4 1 3.32074e-09 
1.38245 -0.673177 0.00164926 0.0025 0.546454 0.429269 1.96388 0.00914989 14 4 1 1.85548e-09 
1.38702 -0.673184 0.00175964 0.0025 0.546458 0.429265 1.96385 0.00914983 15 4 1 -1.89745e-09 
1.3916 -0.673192 0.0019017 0.0025 0.546461 0.42926 1.96382 0.00914978 16 4 1 4.51625e-09 
1.39617 -0.673201 0.00206699 0.0025 0.546463 0.429255 1.96379 0.00914975 17 4 1 1.04429e-09 
1.40075 -0.67321 0.00223556 0.0025 0.546464 0.429249 1.96376 0.00914973 18 4 1 -1.64417e-09 
1.40532 -0.67322 0.00239692 0.0025 0.546465 0.429243 1.96373 0.00914972 19 3 1 2.25223e-09 
1.4099 -0.673231 0.00256335 0.0025 0.546464 0.429237 1.9637 0.00914973 20 4 1 6.94697e-10 
1.41447 -0.673243 0.00276151 0.0025 0.546463 0.42923 1.96367 0.00914975 21 4 1 6.32644e-10 
1.41905 -0.673256 0.00301033 0.0025 0.54646 0.429222 1.96365 0.00914979 22 4 1 3.75855e-10 
1.42362 -0.67327 0.00330556 0.0025 0.546457 0.429214 1.96362 0.00914985 23 4 1 -9.65806e-10 
1.4282 -0.673286 0.00362423 0.0025 0.546453 0.429205 1.96359 0.00914992 24 4 1 6.18315e-10 
1.43277 -0.673302 0.00394445 0.0025 0.546448 0.429195 1.96357 0.00915001 25 4 1 -1.4775e-10 
1.43735 -0.67332 0.00426639 0.0025 0.546441 0.429184 1.96354 0.00915011 26 4 1 -1.28243e-09 
1.44192 -0.673341 0.00462139 0.0025 0.546434 0.429172 1.96351 0.00915024 27 4 1 1.82927e-10 
1.4465 -0.673363 0.00506028 0.0025 0.546425 0.42916 1.96349 0.00915038 28 4 1 -4.1014e-10 
1.45107 -0.673387 0.00561943 0.0025 0.546415 0.429146 1.96346 0.00915055 29 4 1 -2.35369e-09 
1.45565 -0.673414 0.00628269 0.0025 0.546404 0.42913 1.96343 0.00915074 30 4 1 -1.3524e-09 
1.46022 -0.673443 0.00698063 0.0025 0.546391 0.429113 1.9634 0.00915096 31 4 1 -2.77179e-11 
1.4648 -0.673475 0.00765589 0.0025 0.546375 0.429093 1.96336 0.00915122 32 4 1 -2.90786e-09 
1.46937 -0.673511 0.00835229 0.0025 0.546358 0.429072 1.96333 0.0091515 33 4 1 -3.07346e-09 
1.47395 -0.673552 0.00922048 0.0025 0.546339 0.429048 1.96329 0.00915182 34 4 1 -6.50641e-10 
1.47852 -0.673598 0.0103923 0.0025 0.546318 0.429022 1.96325 0.00915219 35 4 1 -3.74722e-09 
1.4831 -0.673649 0.0118454 0.0025 0.546293 0.428993 1.9632 0.0091526 36 4 1 -5.12581e-09 
1.48768 -0.673705 0.0134322 0.0025 0.546264 0.428959 1.96315 0.00915308 37 4 1 -3.24444e-09 
1.49225 -0.673767 0.0150477 0.0025 0.546232 0.428922 1.9631 0.00915363 38 4 1 -4.80774e-09 
1.49683 -0.673838 0.0167376 0.0025 0.546194 0.428879 1.96303 0.00915425 39 4 1 -5.97049e-09 
-0.498592 -0.673919 0.0186613 0.0025 0.546153 0.428832 1.96297 0.00915494 40 4 1 -5.19831e-09 
-0.494014 -0.67401 0.0209889 0.0025 0.546106 0.428779 1.96289 0.00915573 41 4 1 -6.45267e-09 
-0.489436 -0.674113 0.0237784 0.0025 0.546054 0.428719 1.96281 0.00915661 42 4 1 -8.50817e-09 
-0.484858 -0.674228 0.0269028 0.0025 0.545994 0.428652 1.96272 0.00915761 43 4 1 -8.45212e-09 
-0.480279 -0.674356 0.0301392 0.0025 0.545927 0.428577 1.96261 0.00915873 44 4 1 -7.33893e-09 
-0.475699 -0.674497 0.0332724 0.0025 0.545853 0.428494 1.9625 0.00915998 45 4 1 -7.73405e-09 
-0.471119 -0.674651 0.0361042 0.0025 0.545772 0.428404 1.96238 0.00916133 46 4 1 -6.35793e-09 
-0.466538 -0.674818 0.0385251 0.0025 0.545686 0.428309 1.96225 0.00916278 47 4 1 -2.59298e-09 
-0.461956 -0.674992 0.0402927 0.0025 0.545597 0.42821 1.96212 0.00916427 48 4 1 8.74467e-10 
-0.457373 -0.675169 0.0403973 0.0025 0.545508 0.428111 1.96198 0.00916576 49 4 1 6.12922e-09 
-0.45279 -0.675339 0.0379422 0.0025 0.545424 0.428019 1.96186 0.00916717 50 4 1 1.36114e-08 
-0.448206 -0.675494 0.0338004 0.0025 0.545352 0.427938 1.96175 0.00916839 51 4 1 2.36868e-08 
-0.443622 -0.675615 0.0247802 0.0025 0.545298 0.427878 1.96167 0.0091693 52 4 1 2.47762e-08 
-0.439037 -0.675688 0.0158792 0.0025 0.545264 0.427841 1.96161 0.00916986 53 5 1 3.89743e-08 
-0.434452 -0.675756 0.00708286 0.0025 0.545266 0.427845 1.96161 0.00916984 54 4 1 1.41781e-07 
-0.429867 -0.675548 -0.0896461 0.0025 0.545382 0.427974 1.96177 0.00916788 55 4 1 1.89078e-07 
-0.425284 -0.675033 -0.123061 0.0025 0.545654 0.428275 1.96216 0.00916332 56 4 1 2.83375e-07 
-0.420704 -0.674298 -0.248573 0.0025 0.546155 0.428841 1.96287 0.00915492 57 4 1 7.43492e-07 
-0.416129 -0.672437 -0.629926 0.0025 0.54722 0.430025 1.9644 0.00913709 58 4 1 1.21288e-06 
-0.411567 -0.668763 -1.05265 0.0025 0.549126 0.432121 1.96713 0.00910538 59 4 1 1.29574e-06 
-0.407024 -0.663534 -1.34487 0.0025 0.55181 0.435071 1.97097 0.0090611 60 4 1 1.23916e-06 
-0.402505 -0.657299 -1.56457 0.0025 0.555095 0.438701 1.97565 0.00900747 61 4 1 1.39787e-06 
-0.398016 -0.650057 -1.83868 0.0025 0.558955 0.442982 1.98113 0.00894526 62 4 1 1.75062e-06 
-0.39356 -0.641576 -2.1687 0.0025 0.563477 0.44801 1.98753 0.00887347 63 4 1 2.10337e-06 
-0.389142 -0.631794 -2.5113 0.0025 0.568709 0.453844 1.99489 0.00879184 64 4 1 2.33445e-06 
-0.384768 -0.6208 -2.80839 0.0025 0.574604 0.460436 2.00313 0.00870165 65 4 1 2.36409e-06 
-0.380441 -0.608917 -3.00437 0.0025 0.581003 0.46762 2.01202 0.0086058 66 4 1 2.19882e-06 
-0.376162 -0.596689 -3.08166 0.0025 0.587686 0.475158 2.02125 0.00850795 67 4 1 2.00763e-06 
-0.371932 -0.584392 -3.11352 0.0025 0.594475 0.482855 2.03055 0.00841078 68 4 1 1.83291e-06 
-0.367751 -0.57224 -3.09469 0.0025 0.60126 0.490583 2.03979 0.00831587 69 4 1 1.65804e-06 
-0.363616 -0.56037 -3.05152 0.0025 0.607958 0.498248 2.04885 0.00822425 70 4 1 1.50498e-06 
-0.359526 -0.548835 -2.98863 0.0025 0.614523 0.505795 2.05766 0.00813639 71 4 1 1.41231e-06 
-0.355479 -0.537672 -2.94781 0.0025 0.620951 0.513216 2.06624 0.00805216 72 4 1 1.32039e-06 
-0.351474 -0.526806 -2.88308 0.0025 0.627241 0.520508 2.07459 0.00797141 73 4 1 1.24514e-06 
-0.347508 -0.516295 -2.84042 0.0025 0.633398 0.527675 2.08271 0.00789393 74 4 1 1.22015e-06 
-0.34358 -0.506039 -2.8076 0.0025 0.639454 0.534753 2.09064 0.00781917 75 4 1 1.22767e-06 
-0.339689 -0.495936 -2.80443 0.0025 0.645452 0.54179 2.09846 0.00774651 76 4 1 1.26647e-06 
-0.335833 -0.485955 -2.81916 0.0025 0.651444 0.548847 2.10623 0.00767526 77 4 1 1.36458e-06 
-0.332013 -0.475905 -2.89321 0.0025 0.657503 0.55601 2.11404 0.00760452 78 4 1 1.46364e-06 
-0.328228 -0.465716 -2.97038 0.0025 0.663689 0.563347 2.12197 0.00753365 79 4 1 1.51623e-06 
-0.324479 -0.455362 -3.05234 0.0025 0.670016 0.57088 2.13004 0.00746251 80 4 1 1.57591e-06 
-0.320766 -0.444856 -3.1457 0.0025 0.676496 0.578624 2.13826 0.00739103 81 4 1 1.60743e-06 
-0.317088 -0.434149 -3.22549 0.0025 0.683123 0.586573 2.14661 0.00731933 82 4 1 1.58465e-06 
-0.313446 -0.42337 -3.27665 0.0025 0.689858 0.594682 2.15505 0.00724787 83 4 1 1.52668e-06 
-0.30984 -0.412575 -3.29854 0.0025 0.69665 0.602893 2.16351 0.00717721 84 4 1 1.51233e-06 
-0.306269 -0.401821 -3.34324 0.0025 0.703485 0.611191 2.17197 0.00710747 85 4 1 1.49417e-06 
-0.302732 -0.391061 -3.36287 0.0025 0.710356 0.619562 2.18043 0.00703872 86 4 1 1.43384e-06 
-0.29923 -0.380446 -3.36667 0.0025 0.71723 0.627971 2.18885 0.00697127 87 4 1 1.41587e-06 
-0.295761 -0.369856 -3.39076 0.0025 0.724104 0.636411 2.19721 0.00690509 88 4 1 1.36066e-06 
-0.292325 -0.359386 -3.37053 0.0025 0.73096 0.644862 2.20551 0.00684032 89 4 1 1.33396e-06 
-0.28892 -0.349048 -3.39131 0.0025 0.737793 0.653318 2.21373 0.00677697 90 4 1 1.32339e-06 
-0.285548 -0.338769 -3.38928 0.0025 0.744618 0.661793 2.2219 0.00671485 91 4 1 1.28793e-06 
-0.282205 -0.328613 -3.39673 0.0025 0.751425 0.670279 2.23 0.00665402 92 4 1 1.29416e-06 
-0.278893 -0.318513 -3.42212 0.0025 0.758234 0.678796 2.23806 0.00659427 93 4 1 1.23009e-06 
-0.275611 -0.308554 -3.39018 0.0025 0.765017 0.687312 2.24605 0.0065358 94 4 1 1.22398e-06 
-0.272357 -0.298671 -3.42946 0.0025 0.771783 0.695837 2.25397 0.00647851 95 4 1 1.19629e-06 
-0.269132 -0.288864 -3.39946 0.0025 0.778533 0.70437 2.26183 0.00642234 96 4 1 1.14772e-06 
-0.265935 -0.279229 -3.40622 0.0025 0.785247 0.712891 2.26961 0.00636743 97 4 1 1.20161e-06 
-0.262765 -0.269561 -3.45538 0.0025 0.791978 0.721459 2.27738 0.00631331 98 4 1 1.13298e-06 
-0.259622 -0.260008 -3.41094 0.0025 0.798693 0.730036 2.28508 0.00626023 99 4 1 1.08117e-06 
-0.256505 -0.250619 -3.42084 0.0025 0.805365 0.738591 2.29269 0.00620836 100 4 1 1.15211e-06 
-0.253413 -0.241204 -3.47794 0.0025 0.812061 0.747199 2.3003 0.00615717 101 4 1 1.04969e-06 
-0.250347 -0.2319 -3.39982 0.0025 0.818722 0.755792 2.30783 0.00610708 102 4 1 1.00444e-06 
-0.247306 -0.222827 -3.42189 0.0025 0.825327 0.764347 2.31526 0.0060582 103 4 1 1.12039e-06 
-0.244289 -0.213653 -3.49861 0.0025 0.831978 0.772981 2.3227 0.00600977 104 4 1 1.02643e-06 
-0.241296 -0.204557 -3.43121 0.0025 0.838617 0.781627 2.3301 0.0059622 105 4 1 9.24794e-07 
-0.238327 -0.195693 -3.40621 0.0025 0.845178 0.790207 2.33737 0.00591591 106 4 1 1.07174e-06 
-0.23538 -0.186769 -3.53088 0.0025 0.851784 0.798866 2.34466 0.00587003 107 4 1 1.00205e-06 
-0.232456 -0.177825 -3.45046 0.0025 0.858398 0.807557 2.35193 0.0058248 108 4 1 8.2791e-07 
-0.229555 -0.169229 -3.38126 0.0025 0.864896 0.816132 2.35903 0.00578104 109 4 1 9.48831e-07 
-0.226675 -0.160664 -3.47283 0.0025 0.871388 0.824728 2.3661 0.00573797 110 4 1 1.0617e-06 
-0.223817 -0.151923 -3.55466 0.0025 0.877974 0.83346 2.37324 0.00569493 111 4 1 8.28244e-07 
-0.22098 -0.143354 -3.37805 0.0025 0.884484 0.84212 2.38026 0.00565301 112 4 1 7.70989e-07 
-0.218164 -0.135175 -3.40405 0.0025 0.890882 0.850674 2.38713 0.00561241 113 4 1 1.08764e-06 
-0.215368 -0.126646 -3.63613 0.0025 0.897426 0.85943 2.39413 0.00557149 114 4 1 9.15172e-07 
-0.212592 -0.118063 -3.47195 0.0025 0.903991 0.86823 2.40113 0.00553103 115 4 1 5.45982e-07 
-0.209837 -0.110129 -3.25817 0.0025 0.910295 0.876728 2.4078 0.00549273 116 4 1 8.51097e-07 
-0.2071 -0.102216 -3.50711 0.0025 0.916599 0.885253 2.41445 0.00545495 117 4 1 1.10871e-06 
-0.204382 -0.0937821 -3.64217 0.0025 0.923129 0.894079 2.42133 0.00541636 118 4 1 6.64885e-07 
-0.201683 -0.085702 -3.32844 0.0025 0.92953 0.902763 2.42803 0.00537906 119 4 1 5.48726e-07 
-0.199003 -0.0781258 -3.32478 0.0025 0.935712 0.911197 2.43446 0.00534352 120 4 1 9.79427e-07 
-0.19634 -0.0702059 -3.60605 0.0025 0.942047 0.919845 2.44105 0.00530759 121 4 1 8.81574e-07 
-0.193695 -0.06212 -3.49298 0.0025 0.948474 0.928628 2.4477 0.00527162 122 4 1 5.49305e-07 
-0.191068 -0.0545198 -3.33934 0.0025 0.954712 0.937194 2.45412 0.00523718 123 4 1 7.15257e-07 
-0.188458 -0.0469554 -3.4851 0.0025 0.960891 0.945699 2.46047 0.0052035 124 4 1 6.10469e-07 
-0.185864 -0.0394081 -3.25885 0.0025 0.966974 0.954073 2.46669 0.00517077 125 4 1 1.88036e-07 
-0.183287 -0.0327184 -2.86834 0.0025 0.972679 0.961985 2.47247 0.00514044 126 4 1 9.98425e-07 
-0.180724 -0.0257613 -3.70917 0.0025 0.978672 0.970332 2.47856 0.00510897 127 4 1 1.78916e-06 
-0.178178 -0.0169512 -4.35337 0.0025 0.985515 0.979783 2.48554 0.00507349 128 4 1 -2.91768e-07 
-0.17565 -0.00926144 -2.50762 0.0025 0.991508 0.988057 2.49157 0.00504282 129 4 1 -1.69029e-06 
-0.173135 -0.0055539 -1.2575 0.0025 0.995538 0.993789 2.49551 0.00502241 130 4 1 1.51851e-06 
-0.170628 -0.000360452 -3.99416 0.0025 1.00047 1.00079 2.50046 0.00499766 131 4 1 3.42964e-06 
-0.168137 0.00990168 -5.31955 0.0025 1.00783 1.01095 2.50793 0.00496118 132 4 1 -1.36471e-06 
-0.165667 0.0172767 -1.48377 0.0025 1.01346 1.01874 2.51353 0.00493358 133 4 1 -3.7019e-06 
-0.163204 0.0177912 0.59471 0.0025 1.01519 1.02134 2.51509 0.0049252 134 4 1 9.88856e-07 
-0.160741 0.0196896 -2.84323 0.0025 1.01747 1.02464 2.51737 0.00491417 135 4 1 2.18822e-06 
-0.15829 0.026371 -2.79919 0.0025 1.02166 1.03039 2.52163 0.00489401 136 4 1 -2.0659e-06 
-0.155847 0.0287206 -0.0707118 0.0025 1.02377 1.03333 2.52369 0.00488391 137 3 1 -2.32485e-06 
-0.153406 0.027807 0.721488 0.0025 1.02312 1.03249 2.52301 0.00488701 138 4 1 -7.98451e-07 
-0.15096 0.0258274 1.06986 0.0025 1.02142 1.03011 2.52132 0.00489516 139 4 1 -2.84501e-07 
-0.14851 0.0233698 1.2436 0.0025 1.0193 1.02713 2.51922 0.00490533 140 4 1 -5.46499e-08 
-0.146055 0.0206984 1.31437 0.0025 1.01702 1.02392 2.51695 0.00491633 141 4 1 6.82014e-08 
-0.143594 0.0179692 1.32163 0.0025 1.01471 1.02066 2.51466 0.00492752 142 4 1 1.45907e-07 
-0.141128 0.0152894 1.2817 0.0025 1.01246 1.0175 2.51242 0.00493847 143 4 1 1.9709e-07 
-0.138656 0.0127408 1.20591 0.0025 1.01034 1.01451 2.51031 0.00494885 144 4 1 2.30161e-07 
-0.136179 0.0103869 1.10213 0.0025 1.00839 1.01178 2.50837 0.0049584 145 4 1 2.48162e-07 
-0.133697 0.00827568 0.978125 0.0025 1.00666 1.00935 2.50664 0.00496693 146 4 1 2.52483e-07 
-0.131212 0.00643803 0.842234 0.0025 1.00516 1.00724 2.50515 0.00497433 147 4 1 2.44436e-07 
-0.128723 0.00488695 0.703135 0.0025 1.0039 1.00548 2.5039 0.00498056 148 4 1 2.26112e-07 
-0.126231 0.00361795 0.568947 0.0025 1.00288 1.00404 2.50287 0.00498564 149 4 1 2.00418e-07 
-0.123737 0.00261166 0.446236 0.0025 1.00207 1.00291 2.50207 0.00498965 150 4 1 1.70637e-07 
-0.121242 0.00183798 0.339375 0.0025 1.00146 1.00205 2.50145 0.00499273 151 4 1 1.39868e-07 
-0.118745 0.00126097 0.250411 0.0025 1.001 1.0014 2.50099 0.00499502 152 4 1 1.10602e-07 
-0.116247 0.000843274 0.179367 0.0025 1.00067 1.00094 2.50066 0.00499667 153 4 1 8.45216e-08 
-0.113748 0.000549614 0.124788 0.0025 1.00043 1.00061 2.50043 0.00499783 154 4 1 6.25103e-08 
-0.111249 0.000349016 0.0843549 0.0025 1.00027 1.00039 2.50027 0.00499863 155 4 1 4.47908e-08 
-0.108749 0.000215839 0.0554152 0.0025 1.00017 1.00024 2.50017 0.00499915 156 4 1 3.11181e-08 
-0.10625 0.000129904 0.0353756 0.0025 1.0001 1.00014 2.5001 0.00499949 157 4 1 2.09711e-08 
-0.10375 7.6019e-05 0.0219376 0.0025 1.00006 1.00008 2.50006 0.0049997 158 4 1 1.37114e-08 
-0.10125 4.32016e-05 0.0132071 0.0025 1.00003 1.00005 2.50003 0.00499983 159 4 1 8.69619e-09 
-0.0987499 2.38051e-05 0.00771143 0.0025 1.00002 1.00003 2.50002 0.00499991 160 4 1 5.34763e-09 
-0.09625 1.26924e-05 0.00436083 0.0025 1.00001 1.00001 2.50001 0.00499995 161 4 1 3.18585e-09 
-0.09375 6.53092e-06 0.00238396 0.0025 1.00001 1.00001 2.50001 0.00499997 162 4 1 1.83652e-09 
-0.09125 3.23191e-06 0.00125672 0.0025 1 1 2.5 0.00499999 163 4 1 1.02268e-09 
-0.08875 1.53104e-06 0.000636705 0.0025 1 1 2.5 0.00499999 164 4 1 5.48857e-10 
-0.08625 6.8991e-07 0.00030862 0.0025 1 1 2.5 0.005 165 4 1 2.83014e-10 
-0.08375 2.93021e-07 0.00014221 0.0025 1 1 2.5 0.005 166 4 1 1.39616e-10 
-0.08125 1.15683e-07 6.17172e-05 0.0025 1 1 2.5 0.005 167 4 1 6.55013e-11 
-0.07875 4.14931e-08 2.48617e-05 0.0025 1 1 2.5 0.005 168 4 1 2.89706e-11 
-0.07625 1.29588e-08 9.06358e-06 0.0025 1 1 2.5 0.005 169 4 1 1.19172e-11 
-0.07375 3.19789e-09 2.85114e-06 0.0025 1 1 2.5 0.005 170 4 1 4.44228e-12 
-0.07125 4.39842e-10 6.72197e-07 0.0025 1 1 2.5 0.005 171 4 1 1.46882e-12 
-0.06875 -6.82574e-11 1.08448e-08 0.0025 1 1 2.5 0.005 172 5 1 3.72872e-13 
-0.06625 6.2575e-11 -7.57427e-08 0.0025 1 1 2.5 0.005 173 4 1 -1.09001e-14 
-0.06375 1.04449e-10 2.5351e-09 0.0025 1 1 2.5 0.005 174 3 1 -4.15131e-14 
-0.06125 7.91657e-11 1.67508e-08 0.0025 1 1 2.5 0.005 175 4 1 -3.86358e-15 
-0.05875 4.67306e-11 1.52724e-08 0.0025 1 1 2.5 0.005 176 4 1 5.88756e-15 
-0.05625 2.34755e-11 9.64502e-09 0.0025 1 1 2.5 0.005 177 4 1 6.28475e-15 
-0.05375 1.02654e-11 5.06736e-09 0.0025 1 1 2.5 0.005 178 4 1 4.25828e-15 
-0.05125 3.87431e-12 2.28465e-09 0.0025 1 1 2.5 0.005 179 4 1 2.31566e-15 
-0.04875 1.20975e-12 8.82096e-10 0.0025 1 1 2.5 0.005 180 4 1 1.06724e-15 
-0.04625 2.7285e-13 2.72223e-10 0.0025 1 1 2.5 0.005 181 4 1 4.33076e-16 
-0.04375 1.9357e-14 5.9913e-11 0.0025 1 1 2.5 0.005 182 4 1 1.33937e-16 
-0.04125 -1.65634e-14 -6.82121e-12 0.0025 1 1 2.5 0.005 183 5 1 3.48166e-17 
-0.03875 7.7061e-16 -7.7307e-12 0.0025 1 1 2.5 0.005 184 4 1 -1.42109e-18 
-0.03625 7.93256e-15 -1.59162e-12 0.0025 1 1 2.5 0.005 185 4 1 -1.63425e-17 
-0.03375 8.09398e-15 2.04636e-12 0.0025 1 1 2.5 0.005 186 3 1 -4.61853e-18 
-0.03125 2.45148e-15 3.29692e-12 0.0025 1 1 2.5 0.005 187 4 1 4.72511e-17 
-0.02875 -2.40996e-16 -1.13687e-13 0.0025 1 1 2.5 0.005 188 4 1 -3.69482e-17 
-0.02625 -7.29131e-16 -1.13687e-13 0.0025 1 1 2.5 0.005 189 5 1 9.23706e-18 
-0.02375 -1.38468e-15 5.68434e-14 0.0025 1 1 2.5 0.005 190 3 1 -2.84217e-18 
-0.02125 -2.21767e-15 2.19895e-27 0.0025 1 1 2.5 0.005 191 4 1 5.32907e-18 
-0.01875 1.42092e-15 3.97904e-13 0.0025 1 1 2.5 0.005 192 4 1 -7.10543e-18 
-0.01625 7.37806e-16 1.7053e-13 0.0025 1 1 2.5 0.005 193 4 1 1.77636e-18 
-0.01375 1.15409e-15 5.11591e-13 0.0025 1 1 2.5 0.005 194 4 1 3.90799e-18 
-0.01125 7.51883e-16 -7.95808e-13 0.0025 1 1 2.5 0.005 195 5 1 -2.13163e-18 
-0.00875 1.37268e-15 7.95808e-13 0.0025 1 1 2.5 0.005 196 5 1 3.55271e-19 
-0.00625 1.70093e-15 -5.68434e-13 0.0025 1 1 2.5 0.005 197 5 1 1.42109e-18 
-0.00375 1.80571e-15 1.7053e-13 0.0025 1 1 2.5 0.005 198 3 1 -1.06581e-18 
-0.00125 1.30807e-15 -1.7053e-13 0.0025 1 1 2.5 0.005 199 4 1 3.77482e-33 
0.00125 5.84636e-16 -1.13687e-13 0.0025 1 1 2.5 0.005 200 3 1 -7.10543e-19 
0.00375 1.23762e-15 8.52651e-13 0.0025 1 1 2.5 0.005 201 4 1 1.06581e-18 
0.00625 1.51823e-15 -7.38964e-13 0.0025 1 1 2.5 0.005 202 5 1 3.55271e-19 
0.00875 6.32538e-16 5.68434e-14 0.0025 1 1 2.5 0.005 203 3 1 3.55271e-19 
0.01125 1.04331e-15 2.84217e-13 0.0025 1 1 2.5 0.005 204 4 1 1.77636e-18 
0.01375 1.72482e-15 -2.27374e-13 0.0025 1 1 2.5 0.005 205 5 1 -2.84217e-18 
0.01625 1.91693e-15 -4.54747e-13 0.0025 1 1 2.5 0.005 206 4 1 -7.10543e-19 
0.01875 1.92055e-15 6.82121e-13 0.0025 1 1 2.5 0.005 207 4 1 -3.55271e-19 
0.02125 1.40015e-15 6.25278e-13 0.0025 1 1 2.5 0.005 208 3 1 -2.84217e-18 
0.02375 1.23482e-15 -3.41061e-13 0.0025 1 1 2.5 0.005 209 3 1 1.38556e-17 
0.02625 1.02668e-15 5.68434e-14 0.0025 1 1 2.5 0.005 210 4 1 -1.98952e-17 
0.02875 2.45156e-15 -1.42109e-12 0.0025 1 1 2.5 0.005 211 4 1 8.17124e-18 
0.03125 2.32857e-15 1.19371e-12 0.0025 1 1 2.5 0.005 212 3 1 1.98952e-17 
0.03375 9.91885e-17 -1.36424e-12 0.0025 1 1 2.5 0.005 213 5 1 -1.06581e-17 
0.03625 -6.13853e-15 -2.95586e-12 0.0025 1 1 2.5 0.005 214 3 1 -1.52767e-17 
0.03875 -2.62218e-15 8.07177e-12 0.0025 1 1 2.5 0.005 215 4 1 1.1724e-17 
0.04125 2.19746e-14 7.21911e-12 0.0025 1 1 2.5 0.005 216 5 1 2.30926e-17 
0.04375 -1.24814e-14 -5.53655e-11 0.0025 1 1 2.5 0.005 217 4 1 1.33937e-16 
0.04625 -2.66429e-13 -2.77623e-10 0.0025 1 1 2.5 0.005 218 4 1 4.41602e-16 
0.04875 -1.20161e-12 -8.7897e-10 0.0025 1 1 2.5 0.005 219 4 1 1.06404e-15 
0.05125 -3.86753e-12 -2.28266e-09 0.0025 1 1 2.5 0.005 220 4 1 2.31246e-15 
0.05375 -1.02587e-11 -5.0718e-09 0.0025 1 1 2.5 0.005 221 4 1 4.26219e-15 
0.05625 -2.34665e-11 -9.64008e-09 0.0025 1 1 2.5 0.005 222 4 1 6.30003e-15 
0.05875 -4.67271e-11 -1.52756e-08 0.0025 1 1 2.5 0.005 223 4 1 5.81508e-15 
0.06125 -7.91563e-11 -1.67466e-08 0.0025 1 1 2.5 0.005 224 4 1 -3.79288e-15 
