# Time [s]: 0.281379
# Columns: pos [m], vel [m/s], acc [m/s^2], mass [kg], dens [kg/m^3], pres [Pa], ene [J/kg], sml [m], id, neighbor, alpha, gradh, ...additional?
1.31283 -0.673111 0.000485768 0.0025 0.511044 0.432718 2.15249 0.0097839 0 4 1 -0.000134226 
1.31761 -0.673114 0.000563819 0.0025 0.5369 0.42618 1.95003 0.00931273 1 4 1 0.00017925 
1.32215 -0.673117 0.000637526 0.0025 0.548228 0.430849 1.96849 0.00912029 2 3 1 -1.90587e-05 
1.32673 -0.673119 0.000707166 0.0025 0.545962 0.429183 1.96463 0.00915814 3 5 1 3.48576e-06 
1.33131 -0.673122 0.000767745 0.0025 0.546359 0.429337 1.96456 0.00915149 4 4 1 -1.38834e-07 
1.33588 -0.673125 0.000819482 0.0025 0.546369 0.429306 1.96433 0.00915133 5 4 1 1.43587e-07 
1.34046 -0.673128 0.00086835 0.0025 0.54639 0.429303 1.96427 0.00915097 6 4 1 -3.64976e-09 
1.34504 -0.673132 0.000922842 0.0025 0.546401 0.429298 1.9642 0.00915078 7 4 1 8.08181e-09 
1.34961 -0.673135 0.000987557 0.0025 0.546414 0.429295 1.96415 0.00915057 8 4 1 4.58993e-09 
1.35419 -0.673139 0.00105928 0.0025 0.546424 0.429292 1.9641 0.0091504 9 4 1 5.28761e-09 
1.35876 -0.673144 0.00113012 0.0025 0.546433 0.42929 1.96405 0.00915025 10 4 1 -2.42741e-09 
1.36334 -0.673148 0.00119604 0.0025 0.546442 0.429286 1.96401 0.0091501 11 4 1 4.54644e-09 
1.36791 -0.673153 0.00126276 0.0025 0.54645 0.429283 1.96397 0.00914998 12 4 1 2.66032e-09 
1.37249 -0.673159 0.00134231 0.0025 0.546456 0.42928 1.96393 0.00914987 13 4 1 3.34789e-09 
1.37706 -0.673165 0.00144229 0.0025 0.546461 0.429276 1.96389 0.00914979 14 4 1 1.84939e-09 
1.38164 -0.673171 0.00155823 0.0025 0.546465 0.429272 1.96386 0.00914972 15 4 1 -1.88707e-09 
1.38621 -0.673178 0.00167762 0.0025 0.546469 0.429268 1.96383 0.00914965 16 4 1 4.58731e-09 
1.39079 -0.673186 0.00179287 0.0025 0.546471 0.429264 1.9638 0.00914961 17 4 1 1.16916e-09 
1.39536 -0.673194 0.00191073 0.0025 0.546473 0.429259 1.96377 0.00914959 18 4 1 -1.52112e-09 
1.39993 -0.673203 0.00204835 0.0025 0.546474 0.429254 1.96374 0.00914956 19 4 1 2.32097e-09 
1.40451 -0.673212 0.00221921 0.0025 0.546474 0.429248 1.96371 0.00914956 20 3 1 7.12529e-10 
1.40908 -0.673223 0.00242155 0.0025 0.546474 0.429242 1.96369 0.00914957 21 4 1 6.61532e-10 
1.41366 -0.673234 0.00263958 0.0025 0.546472 0.429235 1.96366 0.00914959 22 4 1 4.86766e-10 
1.41823 -0.673246 0.00285696 0.0025 0.54647 0.429228 1.96364 0.00914963 23 4 1 -7.52252e-10 
1.42281 -0.673259 0.00307268 0.0025 0.546467 0.42922 1.96361 0.00914968 24 4 1 8.8254e-10 
1.42738 -0.673273 0.00330808 0.0025 0.546463 0.429212 1.96359 0.00914975 25 4 1 7.39797e-11 
1.43196 -0.673289 0.00359732 0.0025 0.546458 0.429203 1.96357 0.00914983 26 4 1 -1.16634e-09 
1.43653 -0.673306 0.00396255 0.0025 0.546453 0.429193 1.96354 0.00914992 27 4 1 2.3185e-10 
1.44111 -0.673325 0.00438988 0.0025 0.546446 0.429182 1.96352 0.00915004 28 4 1 -2.77586e-10 
1.44568 -0.673345 0.00483273 0.0025 0.546438 0.42917 1.96349 0.00915018 29 4 1 -1.97356e-09 
1.45026 -0.673368 0.00525517 0.0025 0.546428 0.429157 1.96346 0.00915033 30 4 1 -7.17012e-10 
1.45483 -0.673392 0.00568491 0.0025 0.546418 0.429142 1.96343 0.00915051 31 4 1 6.38332e-10 
1.45941 -0.67342 0.00621457 0.0025 0.546406 0.429127 1.96341 0.00915071 32 4 1 -2.49776e-09 
1.46398 -0.673451 0.00692835 0.0025 0.546392 0.429109 1.96338 0.00915094 33 4 1 -2.94706e-09 
1.46856 -0.673485 0.00782033 0.0025 0.546377 0.42909 1.96334 0.00915119 34 4 1 -4.58979e-10 
1.47314 -0.673521 0.00879992 0.0025 0.546359 0.429068 1.96331 0.00915149 35 4 1 -3.06123e-09 
1.47771 -0.673562 0.00978753 0.0025 0.546338 0.429043 1.96327 0.00915184 36 4 1 -3.86415e-09 
1.48229 -0.673608 0.0107999 0.0025 0.546315 0.429016 1.96322 0.00915222 37 4 1 -1.75233e-09 
1.48686 -0.67366 0.011948 0.0025 0.546289 0.428985 1.96318 0.00915266 38 4 1 -3.52979e-09 
1.49144 -0.673718 0.0133651 0.0025 0.54626 0.428952 1.96313 0.00915315 39 4 1 -5.0926e-09 
1.49602 -0.673784 0.0151226 0.0025 0.546227 0.428914 1.96307 0.0091537 40 4 1 -4.53412e-09 
-0.499406 -0.673858 0.0171885 0.0025 0.54619 0.428871 1.96301 0.00915433 41 4 1 -5.61024e-09 
-0.494829 -0.673941 0.0194718 0.0025 0.546147 0.428822 1.96294 0.00915505 42 4 1 -7.26901e-09 
-0.490251 -0.674033 0.0219107 0.0025 0.546098 0.428767 1.96287 0.00915586 43 4 1 -7.0627e-09 
-0.485673 -0.674137 0.0245226 0.0025 0.546044 0.428705 1.96278 0.00915678 44 4 1 -6.44401e-09 
-0.481094 -0.674255 0.027378 0.0025 0.545982 0.428637 1.96269 0.00915781 45 4 1 -8.08354e-09 
-0.476515 -0.674385 0.0304503 0.0025 0.545914 0.428561 1.96258 0.00915895 46 4 1 -8.35653e-09 
-0.471935 -0.674529 0.0334637 0.0025 0.545839 0.428477 1.96247 0.0091602 47 4 1 -6.08967e-09 
-0.467355 -0.674685 0.0361025 0.0025 0.545759 0.428387 1.96235 0.00916156 48 4 1 -4.48867e-09 
-0.462774 -0.674852 0.0382297 0.0025 0.545674 0.428293 1.96222 0.00916299 49 4 1 -2.56389e-09 
-0.458192 -0.675025 0.0394148 0.0025 0.545586 0.428196 1.96209 0.00916445 50 4 1 1.96862e-09 
-0.453609 -0.675198 0.0390451 0.0025 0.545501 0.428101 1.96196 0.00916589 51 4 1 8.22031e-09 
-0.449026 -0.67536 0.0370365 0.0025 0.545421 0.428013 1.96184 0.00916723 52 4 1 1.43192e-08 
-0.444442 -0.6755 0.0317678 0.0025 0.545353 0.427937 1.96174 0.00916838 53 4 1 2.49879e-08 
-0.439858 -0.675608 0.0202335 0.0025 0.545305 0.427884 1.96167 0.00916917 54 4 1 2.97811e-08 
-0.435273 -0.675677 0.00976642 0.0025 0.545283 0.42786 1.96163 0.00916955 55 5 1 5.21679e-08 
-0.430688 -0.675749 -0.00477415 0.0025 0.545305 0.427887 1.96166 0.00916919 56 4 1 1.60956e-07 
-0.426104 -0.675477 -0.110081 0.0025 0.545458 0.428055 1.96187 0.00916662 57 4 1 1.92037e-07 
-0.421521 -0.674903 -0.134277 0.0025 0.545769 0.4284 1.96232 0.00916139 58 4 1 3.16935e-07 
-0.416942 -0.674018 -0.29249 0.0025 0.546333 0.429036 1.96312 0.00915193 59 4 1 7.90236e-07 
-0.412369 -0.67194 -0.672724 0.0025 0.54749 0.43032 1.96478 0.00913259 60 4 1 1.22082e-06 
-0.40781 -0.66807 -1.08984 0.0025 0.549482 0.43251 1.96763 0.00909948 61 4 1 1.28899e-06 
-0.40327 -0.662726 -1.36988 0.0025 0.552233 0.435536 1.97157 0.00905415 62 4 1 1.22189e-06 
-0.398755 -0.656402 -1.57985 0.0025 0.555561 0.439214 1.97631 0.00899991 63 4 1 1.36813e-06 
-0.39427 -0.649108 -1.841 0.0025 0.559437 0.443514 1.98181 0.00893755 64 4 1 1.69462e-06 
-0.389818 -0.640683 -2.15267 0.0025 0.563939 0.44852 1.98817 0.00886621 65 4 1 2.00168e-06 
-0.385404 -0.631036 -2.46306 0.0025 0.569099 0.454275 1.99543 0.00878582 66 4 1 2.22286e-06 
-0.381032 -0.620271 -2.75196 0.0025 0.574878 0.46074 2.00351 0.00869749 67 4 1 2.24284e-06 
-0.376706 -0.608683 -2.9254 0.0025 0.58113 0.467761 2.01219 0.00860392 68 4 1 2.08274e-06 
-0.372427 -0.596751 -3.00456 0.0025 0.587645 0.47511 2.02118 0.00850855 69 4 1 1.91347e-06 
-0.368197 -0.584766 -3.03335 0.0025 0.594263 0.482612 2.03026 0.00841378 70 4 1 1.73972e-06 
-0.364013 -0.572927 -3.01285 0.0025 0.600874 0.490141 2.03926 0.00832121 71 4 1 1.5912e-06 
-0.359875 -0.561326 -2.98235 0.0025 0.60741 0.497617 2.0481 0.00823167 72 4 1 1.44475e-06 
-0.355782 -0.55008 -2.91656 0.0025 0.613823 0.504986 2.05672 0.00814568 73 4 1 1.34647e-06 
-0.35173 -0.539137 -2.87717 0.0025 0.620101 0.512231 2.06511 0.00806321 74 4 1 1.27916e-06 
-0.347718 -0.528517 -2.82582 0.0025 0.626255 0.519361 2.07328 0.00798397 75 4 1 1.19359e-06 
-0.343745 -0.518189 -2.77274 0.0025 0.63228 0.52637 2.08123 0.00790789 76 4 1 1.16828e-06 
-0.33981 -0.508145 -2.74932 0.0025 0.638204 0.533288 2.089 0.00783448 77 4 1 1.17347e-06 
-0.335911 -0.498251 -2.73682 0.0025 0.644069 0.540163 2.09666 0.00776314 78 4 1 1.19085e-06 
-0.332047 -0.488501 -2.74464 0.0025 0.649912 0.547038 2.10424 0.00769335 79 4 1 1.26082e-06 
-0.328217 -0.478736 -2.79302 0.0025 0.655794 0.553984 2.11184 0.00762435 80 4 1 1.36304e-06 
-0.324422 -0.468859 -2.87303 0.0025 0.66178 0.561078 2.11953 0.00755538 81 4 1 1.41768e-06 
-0.320662 -0.458819 -2.93903 0.0025 0.667894 0.568348 2.12734 0.00748622 82 4 1 1.469e-06 
-0.316936 -0.44865 -3.02884 0.0025 0.674145 0.575809 2.13528 0.00741681 83 4 1 1.51472e-06 
-0.313245 -0.438312 -3.10716 0.0025 0.68054 0.583469 2.14335 0.00734711 84 4 1 1.51862e-06 
-0.309589 -0.427855 -3.17526 0.0025 0.687057 0.591303 2.15154 0.00727742 85 4 1 1.46347e-06 
-0.305967 -0.417336 -3.19376 0.0025 0.693643 0.599252 2.15976 0.00720832 86 4 1 1.42795e-06 
-0.30238 -0.406887 -3.23134 0.0025 0.700269 0.607281 2.16799 0.00714012 87 4 1 1.42859e-06 
-0.298827 -0.396406 -3.26298 0.0025 0.706936 0.615388 2.17622 0.00707278 88 4 1 1.3663e-06 
-0.295307 -0.386019 -3.25676 0.0025 0.713609 0.623535 2.18442 0.00700664 89 4 1 1.35456e-06 
-0.29182 -0.375708 -3.29321 0.0025 0.720287 0.63172 2.19257 0.00694167 90 4 1 1.32794e-06 
-0.288365 -0.365466 -3.28625 0.0025 0.726968 0.639936 2.20068 0.00687788 91 4 1 1.26317e-06 
-0.284942 -0.35536 -3.28099 0.0025 0.733619 0.648148 2.20871 0.00681552 92 4 1 1.26684e-06 
-0.28155 -0.345318 -3.30271 0.0025 0.740261 0.656377 2.21669 0.00675437 93 4 1 1.22584e-06 
-0.278188 -0.335399 -3.28261 0.0025 0.746883 0.664612 2.22459 0.00669449 94 4 1 1.22517e-06 
-0.274855 -0.325541 -3.32098 0.0025 0.753497 0.672866 2.23245 0.00663573 95 4 1 1.20226e-06 
-0.271552 -0.315746 -3.30324 0.0025 0.760106 0.681141 2.24026 0.00657803 96 4 1 1.1496e-06 
-0.268277 -0.306114 -3.30552 0.0025 0.766683 0.689408 2.248 0.0065216 97 4 1 1.17147e-06 
-0.26503 -0.296491 -3.33386 0.0025 0.77326 0.697701 2.25569 0.00646613 98 4 1 1.10836e-06 
-0.261811 -0.28701 -3.29443 0.0025 0.77981 0.705988 2.26331 0.00641182 99 4 1 1.0901e-06 
-0.258618 -0.277655 -3.32047 0.0025 0.786332 0.714271 2.27087 0.00635863 100 4 1 1.14697e-06 
-0.255452 -0.268284 -3.36284 0.0025 0.792881 0.72261 2.27841 0.00630611 101 4 1 1.05439e-06 
-0.252312 -0.259004 -3.30764 0.0025 0.799403 0.730944 2.28589 0.00625466 102 4 1 1.01546e-06 
-0.249197 -0.249908 -3.32471 0.0025 0.805881 0.739253 2.29328 0.00620439 103 4 1 1.09617e-06 
-0.246107 -0.240742 -3.38268 0.0025 0.812389 0.747621 2.30067 0.00615469 104 4 1 9.98639e-07 
-0.243042 -0.231708 -3.31149 0.0025 0.818868 0.75598 2.30799 0.00610599 105 4 1 9.30995e-07 
-0.240001 -0.222875 -3.30934 0.0025 0.825281 0.764286 2.3152 0.00605854 106 4 1 1.05323e-06 
-0.236984 -0.214005 -3.39908 0.0025 0.831733 0.772663 2.32243 0.00601155 107 4 1 9.97034e-07 
-0.23399 -0.205099 -3.35033 0.0025 0.838195 0.781075 2.32963 0.0059652 108 4 1 8.68327e-07 
-0.231018 -0.196497 -3.30231 0.0025 0.844577 0.789418 2.33671 0.00592012 109 4 1 9.79339e-07 
-0.228069 -0.187859 -3.40299 0.0025 0.850976 0.797807 2.34377 0.0058756 110 4 1 9.96419e-07 
-0.225143 -0.179163 -3.39833 0.0025 0.857418 0.806269 2.35086 0.00583146 111 4 1 8.21493e-07 
-0.222238 -0.170666 -3.30372 0.0025 0.863777 0.814651 2.35781 0.00578853 112 4 1 8.03512e-07 
-0.219354 -0.162436 -3.30303 0.0025 0.870056 0.822961 2.36465 0.00574676 113 4 1 1.00687e-06 
-0.216491 -0.15401 -3.46899 0.0025 0.876424 0.831405 2.37156 0.005705 114 4 1 9.19189e-07 
-0.213649 -0.145516 -3.37671 0.0025 0.882823 0.839905 2.37847 0.00566365 115 4 1 6.57049e-07 
-0.210827 -0.137483 -3.23269 0.0025 0.889056 0.848225 2.38517 0.00562394 116 4 1 8.73364e-07 
-0.208025 -0.129443 -3.42699 0.0025 0.895305 0.856593 2.39186 0.00558469 117 4 1 1.06038e-06 
-0.205242 -0.12103 -3.53318 0.0025 0.901727 0.865194 2.39872 0.00554492 118 4 1 6.61648e-07 
-0.20248 -0.112927 -3.24328 0.0025 0.908012 0.87364 2.40539 0.00550654 119 4 1 5.33595e-07 
-0.199736 -0.105378 -3.20924 0.0025 0.914069 0.881828 2.41178 0.00547004 120 4 1 9.7912e-07 
-0.19701 -0.0975069 -3.51543 0.0025 0.920281 0.890232 2.41833 0.00543312 121 4 1 9.63204e-07 
-0.194303 -0.0893234 -3.46853 0.0025 0.926642 0.89884 2.42501 0.00539582 122 4 1 4.99054e-07 
-0.191614 -0.0816811 -3.17818 0.0025 0.932776 0.907182 2.43141 0.00536034 123 4 1 6.19129e-07 
-0.188942 -0.0743131 -3.3118 0.0025 0.938789 0.915396 2.43766 0.00532601 124 4 1 9.73248e-07 
-0.186288 -0.0665233 -3.51685 0.0025 0.944995 0.923872 2.4441 0.00529103 125 4 1 7.27153e-07 
-0.183651 -0.0587484 -3.33397 0.0025 0.951203 0.932367 2.45051 0.0052565 126 4 1 4.77479e-07 
-0.181031 -0.0515077 -3.21768 0.0025 0.9572 0.940617 2.45667 0.00522357 127 4 1 7.53423e-07 
-0.178428 -0.0441188 -3.4441 0.0025 0.963214 0.948903 2.46285 0.00519095 128 4 1 6.04995e-07 
-0.17584 -0.0367143 -3.18659 0.0025 0.969163 0.957094 2.46892 0.00515909 129 4 1 5.92494e-08 
-0.173268 -0.0302863 -2.70162 0.0025 0.974654 0.964715 2.47448 0.00513002 130 4 1 8.53746e-07 
-0.17071 -0.0237869 -3.50549 0.0025 0.980358 0.972676 2.48026 0.00510018 131 4 1 1.89485e-06 
-0.168168 -0.0151786 -4.3922 0.0025 0.987048 0.981926 2.48708 0.00506561 132 4 1 -8.7993e-08 
-0.165645 -0.00733273 -2.62318 0.0025 0.993079 0.990242 2.49315 0.00503485 133 4 1 -1.96104e-06 
-0.163133 -0.00377835 -0.949919 0.0025 0.996916 0.995697 2.49689 0.00501547 134 4 1 1.0457e-06 
-0.160629 0.000516164 -3.51672 0.0025 1.00128 1.00193 2.50126 0.0049936 135 4 1 3.60201e-06 
-0.15814 0.0102591 -5.34647 0.0025 1.0083 1.01164 2.50839 0.00495885 136 4 1 -8.21361e-07 
-0.15567 0.0180737 -1.83 0.0025 1.01413 1.01969 2.5142 0.00493032 137 4 1 -3.73284e-06 
-0.153209 0.0189881 0.599486 0.0025 1.01603 1.02251 2.51594 0.00492111 138 4 1 3.7638e-07 
-0.150749 0.0202328 -2.25964 0.0025 1.01787 1.0252 2.51777 0.00491222 139 4 1 1.89122e-06 
-0.148297 0.0258922 -2.44536 0.0025 1.02137 1.03 2.52133 0.00489536 140 4 1 -1.68627e-06 
-0.145854 0.0279621 -0.0745004 0.0025 1.0232 1.03253 2.52311 0.00488665 141 3 1 -2.06759e-06 
-0.14341 0.0271241 0.658483 0.0025 1.02257 1.03171 2.52246 0.00488964 142 4 1 -7.55209e-07 
-0.140964 0.0252657 1.00835 0.0025 1.02096 1.02946 2.52086 0.00489737 143 4 1 -2.96713e-07 
-0.138513 0.0229126 1.19507 0.0025 1.01892 1.0266 2.51884 0.00490714 144 4 1 -7.46307e-08 
-0.136057 0.020323 1.27719 0.0025 1.01671 1.02348 2.51665 0.00491782 145 4 1 5.32475e-08 
-0.133595 0.01766 1.2909 0.0025 1.01446 1.02031 2.51441 0.00492875 146 4 1 1.36714e-07 
-0.131128 0.0150394 1.25359 0.0025 1.01226 1.01721 2.51222 0.00493945 147 4 1 1.91105e-07 
-0.128656 0.0125474 1.17866 0.0025 1.01018 1.0143 2.51016 0.0049496 148 4 1 2.24679e-07 
-0.126179 0.0102483 1.07588 0.0025 1.00828 1.01163 2.50827 0.00495892 149 4 1 2.41602e-07 
-0.123697 0.0081881 0.954152 0.0025 1.00659 1.00925 2.50658 0.00496726 150 4 1 2.44549e-07 
-0.121211 0.00639465 0.822006 0.0025 1.00513 1.0072 2.50512 0.00497448 151 4 1 2.35737e-07 
-0.118722 0.00487853 0.687677 0.0025 1.0039 1.00547 2.50389 0.00498058 152 4 1 2.17616e-07 
-0.116231 0.00363417 0.558535 0.0025 1.0029 1.00407 2.50289 0.00498556 153 4 1 1.92999e-07 
-0.113737 0.00264264 0.440438 0.0025 1.0021 1.00295 2.5021 0.00498952 154 4 1 1.6483e-07 
-0.111241 0.00187546 0.337284 0.0025 1.00149 1.00209 2.50148 0.00499257 155 4 1 1.35827e-07 
-0.108744 0.00129885 0.250931 0.0025 1.00103 1.00144 2.50103 0.00499487 156 4 1 1.08177e-07 
-0.106246 0.000877672 0.181447 0.0025 1.00069 1.00097 2.50069 0.00499654 157 4 1 8.33891e-08 
-0.103748 0.000578564 0.127574 0.0025 1.00046 1.00064 2.50045 0.00499772 158 4 1 6.22901e-08 
-0.101249 0.000371958 0.0872411 0.0025 1.00029 1.00041 2.50029 0.00499853 159 4 1 4.51295e-08 
-0.0987492 0.000233122 0.0580357 0.0025 1.00018 1.00026 2.50018 0.00499908 160 4 1 3.17336e-08 
-0.0962495 0.000142353 0.037555 0.0025 1.00011 1.00016 2.50011 0.00499944 161 4 1 2.1666e-08 
-0.0937497 8.46257e-05 0.0236333 0.0025 1.00007 1.00009 2.50007 0.00499967 162 4 1 1.43651e-08 
-0.0912499 4.89265e-05 0.0144559 0.0025 1.00004 1.00005 2.50004 0.00499981 163 4 1 9.24857e-09 
-0.0887499 2.74736e-05 0.00858782 0.0025 1.00002 1.00003 2.50002 0.00499989 164 4 1 5.78003e-09 
-0.08625 1.49581e-05 0.00494934 0.0025 1.00001 1.00002 2.50001 0.00499994 165 4 1 3.5043e-09 
-0.08375 7.87914e-06 0.00276296 0.0025 1.00001 1.00001 2.50001 0.00499997 166 4 1 2.05905e-09 
-0.08125 4.00407e-06 0.00149102 0.0025 1 1 2.5 0.00499998 167 4 1 1.17096e-09 
-0.07875 1.95587e-06 0.000775729 0.0025 1 1 2.5 0.00499999 168 4 1 6.43313e-10 
-0.07625 9.13775e-07 0.000387698 0.0025 1 1 2.5 0.005 169 4 1 3.4059e-10 
-0.07375 4.05516e-07 0.000185228 0.0025 1 1 2.5 0.005 170 4 1 1.73188e-10 
-0.07125 1.6924e-07 8.40136e-05 0.0025 1 1 2.5 0.005 171 4 1 8.41958e-11 
-0.06875 6.54075e-08 3.58076e-05 0.0025 1 1 2.5 0.005 172 4 1 3.88797e-11 
-0.06625 2.28089e-08 1.41089e-05 0.0025 1 1 2.5 0.005 173 4 1 1.6891e-11 
-0.06375 6.82706e-09 4.99263e-06 0.0025 1 1 2.5 0.005 174 4 1 6.80006e-12 
-0.06125 1.55249e-09 1.4953e-06 0.0025 1 1 2.5 0.005 175 4 1 2.46277e-12 
-0.05875 1.51627e-10 3.24232e-07 0.0025 1 1 2.5 0.005 176 4 1 7.87436e-13 
-0.05625 -3.93709e-11 -4.58098e-08 0.0025 1 1 2.5 0.005 177 5 1 1.72978e-13 
-0.05375 6.04272e-11 -3.45898e-08 0.0025 1 1 2.5 0.005 178 4 1 -2.99789e-14 
-0.05125 7.19458e-11 5.03593e-09 0.0025 1 1 2.5 0.005 179 3 1 -2.07336e-14 
-0.04875 5.09045e-11 1.23918e-08 0.0025 1 1 2.5 0.005 180 4 1 -2.01439e-16 
-0.04625 2.89833e-11 9.90804e-09 0.0025 1 1 2.5 0.005 181 4 1 4.51976e-15 
-0.04375 1.41949e-11 6.0424e-09 0.0025 1 1 2.5 0.005 182 4 1 4.17586e-15 
-0.04125 6.06808e-12 3.07466e-09 0.0025 1 1 2.5 0.005 183 4 1 2.672e-15 
-0.03875 2.2342e-12 1.35344e-09 0.0025 1 1 2.5 0.005 184 4 1 1.41505e-15 
-0.03625 6.75332e-13 5.06361e-10 0.0025 1 1 2.5 0.005 185 4 1 6.27409e-16 
-0.03375 1.40675e-13 1.55012e-10 0.0025 1 1 2.5 0.005 186 4 1 2.43716e-16 
-0.03125 2.94152e-15 3.14913e-11 0.0025 1 1 2.5 0.005 187 4 1 1.2399e-16 
-0.02875 -1.32274e-14 -1.02318e-11 0.0025 1 1 2.5 0.005 188 5 1 -1.74083e-17 
-0.02625 5.39286e-15 -3.63798e-12 0.0025 1 1 2.5 0.005 189 4 1 -3.19744e-18 
-0.02375 6.71547e-15 1.7053e-12 0.0025 1 1 2.5 0.005 190 3 1 -1.77636e-18 
-0.02125 5.62025e-15 5.68434e-13 0.0025 1 1 2.5 0.005 191 4 1 2.13163e-18 
-0.01875 1.87536e-15 1.87583e-12 0.0025 1 1 2.5 0.005 192 4 1 1.84966e-31 
-0.01625 2.45166e-15 7.38964e-13 0.0025 1 1 2.5 0.005 193 5 1 -2.4869e-18 
-0.01375 1.22395e-15 -9.66338e-13 0.0025 1 1 2.5 0.005 194 5 1 3.55271e-18 
-0.01125 1.34647e-15 3.41061e-13 0.0025 1 1 2.5 0.005 195 3 1 -2.13163e-18 
-0.00875 1.32056e-15 -5.11591e-13 0.0025 1 1 2.5 0.005 196 4 1 3.55271e-19 
-0.00625 7.38706e-16 8.52651e-13 0.0025 1 1 2.5 0.005 197 5 1 3.55271e-19 
-0.00375 9.83809e-16 -6.82121e-13 0.0025 1 1 2.5 0.005 198 4 1 3.55271e-19 
-0.00125 7.30696e-16 -4.93038e-29 0.0025 1 1 2.5 0.005 199 4 1 3.55271e-19 
0.00125 1.07401e-15 -5.60519e-44 0.0025 1 1 2.5 0.005 200 4 1 3.77482e-33 
0.00375 9.40053e-16 -6.82121e-13 0.0025 1 1 2.5 0.005 201 3 1 -1.06581e-18 
0.00625 9.06509e-16 6.82121e-13 0.0025 1 1 2.5 0.005 202 3 1 -1.06581e-18 
0.00875 1.47203e-15 5.68434e-14 0.0025 1 1 2.5 0.005 203 4 1 3.77482e-33 
0.01125 1.46293e-15 -5.68434e-14 0.0025 1 1 2.5 0.005 204 5 1 2.4869e-18 
0.01375 6.40985e-16 -4.54747e-13 0.0025 1 1 2.5 0.005 205 5 1 -4.61853e-18 
0.01625 2.89665e-15 5.68434e-13 0.0025 1 1 2.5 0.005 206 4 1 -1.77636e-18 
0.01875 9.2283e-16 6.25278e-13 0.0025 1 1 2.5 0.005 207 4 1 2.4869e-18 
0.02125 9.97106e-16 -1.93268e-12 0.0025 1 1 2.5 0.005 208 4 1 1.97215e-32 
0.02375 9.54452e-16 -6.82121e-13 0.0025 1 1 2.5 0.005 209 3 1 1.3145e-17 
0.02625 -1.38715e-15 2.44427e-12 0.0025 1 1 2.5 0.005 210 4 1 -2.84217e-17 
0.02875 9.75038e-15 1.06866e-11 0.0025 1 1 2.5 0.005 211 5 1 2.13163e-17 
0.03125 4.14815e-15 -2.97291e-11 0.0025 1 1 2.5 0.005 212 4 1 1.01963e-16 
0.03375 -1.38637e-13 -1.52966e-10 0.0025 1 1 2.5 0.005 213 4 1 2.3519e-16 
0.03625 -6.69567e-13 -5.10738e-10 0.0025 1 1 2.5 0.005 214 4 1 6.22791e-16 
0.03875 -2.22727e-12 -1.35174e-09 0.0025 1 1 2.5 0.005 215 4 1 1.4289e-15 
0.04125 -6.06192e-12 -3.07421e-09 0.0025 1 1 2.5 0.005 216 4 1 2.6624e-15 
0.04375 -1.41851e-11 -6.04007e-09 0.0025 1 1 2.5 0.005 217 4 1 4.17444e-15 
0.04625 -2.89794e-11 -9.91116e-09 0.0025 1 1 2.5 0.005 218 4 1 4.53078e-15 
0.04875 -5.08955e-11 -1.23889e-08 0.0025 1 1 2.5 0.005 219 4 1 -2.07123e-16 
0.05125 -7.19342e-11 -5.03519e-09 0.0025 1 1 2.5 0.005 220 3 1 -2.07336e-14 
0.05375 -6.04197e-11 3.45862e-08 0.0025 1 1 2.5 0.005 221 4 1 -2.99746e-14 
0.05625 3.9372e-11 4.58075e-08 0.0025 1 1 2.5 0.005 222 5 1 1.72991e-13 
0.05875 -1.51625e-10 -3.24229e-07 0.0025 1 1 2.5 0.005 223 4 1 7.87368e-13 
