# Time [s]: 0.28261
# Columns: pos [m], vel [m/s], acc [m/s^2], mass [kg], dens [kg/m^3], pres [Pa], ene [J/kg], sml [m], id, neighbor, alpha, gradh, ...additional?
1.312 -0.673111 0.000487875 0.0025 0.511044 0.432719 2.15249 0.0097839 0 4 1 -0.000134226 
1.31678 -0.673113 0.00056451 0.0025 0.5369 0.426181 1.95003 0.00931272 1 4 1 0.00017925 
1.32132 -0.673116 0.000635396 0.0025 0.548229 0.430849 1.96849 0.00912028 2 3 1 -1.90587e-05 
1.3259 -0.673119 0.000700636 0.0025 0.545963 0.429184 1.96463 0.00915813 3 5 1 3.48578e-06 
1.33048 -0.673121 0.000756374 0.0025 0.54636 0.429337 1.96456 0.00915148 4 4 1 -1.38822e-07 
1.33506 -0.673124 0.000804584 0.0025 0.546369 0.429306 1.96433 0.00915132 5 4 1 1.43596e-07 
1.33963 -0.673127 0.000852223 0.0025 0.54639 0.429303 1.96427 0.00915097 6 4 1 -3.64565e-09 
1.34421 -0.673131 0.000906915 0.0025 0.546402 0.429298 1.9642 0.00915077 7 4 1 8.08325e-09 
1.34878 -0.673134 0.00097101 0.0025 0.546414 0.429296 1.96415 0.00915057 8 4 1 4.59334e-09 
1.35336 -0.673138 0.00103965 0.0025 0.546425 0.429293 1.9641 0.00915039 9 4 1 5.29596e-09 
1.35793 -0.673142 0.00110573 0.0025 0.546434 0.42929 1.96405 0.00915024 10 4 1 -2.41615e-09 
1.36251 -0.673147 0.00116796 0.0025 0.546443 0.429287 1.96401 0.00915009 11 4 1 4.55498e-09 
1.36708 -0.673152 0.00123422 0.0025 0.54645 0.429284 1.96397 0.00914996 12 4 1 2.66236e-09 
1.37166 -0.673157 0.00131562 0.0025 0.546457 0.429281 1.96393 0.00914986 13 4 1 3.34601e-09 
1.37623 -0.673163 0.0014162 0.0025 0.546462 0.429277 1.96389 0.00914977 14 4 1 1.85095e-09 
1.38081 -0.673169 0.00152861 0.0025 0.546466 0.429273 1.96386 0.0091497 15 4 1 -1.8768e-09 
1.38538 -0.673176 0.00164115 0.0025 0.54647 0.429269 1.96383 0.00914964 16 4 1 4.60395e-09 
1.38996 -0.673183 0.00175026 0.0025 0.546472 0.429265 1.9638 0.00914959 17 4 1 1.18391e-09 
1.39453 -0.673191 0.00186611 0.0025 0.546474 0.42926 1.96377 0.00914957 18 4 1 -1.51471e-09 
1.39911 -0.6732 0.00200533 0.0025 0.546475 0.429255 1.96374 0.00914954 19 4 1 2.321e-09 
1.40368 -0.673209 0.00217701 0.0025 0.546476 0.42925 1.96372 0.00914953 20 3 1 7.15572e-10 
1.40826 -0.67322 0.00237478 0.0025 0.546475 0.429244 1.96369 0.00914954 21 4 1 6.76883e-10 
1.41283 -0.67323 0.0025819 0.0025 0.546474 0.429237 1.96367 0.00914956 22 4 1 5.15699e-10 
1.4174 -0.673242 0.00278581 0.0025 0.546472 0.42923 1.96364 0.0091496 23 4 1 -7.1865e-10 
1.42198 -0.673255 0.0029919 0.0025 0.546469 0.429223 1.96362 0.00914965 24 4 1 9.07245e-10 
1.42655 -0.673269 0.00322575 0.0025 0.546465 0.429214 1.96359 0.00914971 25 4 1 8.23847e-11 
1.43113 -0.673285 0.00351883 0.0025 0.546461 0.429206 1.96357 0.00914979 26 4 1 -1.1658e-09 
1.4357 -0.673302 0.00388293 0.0025 0.546455 0.429196 1.96355 0.00914988 27 4 1 2.47841e-10 
1.44028 -0.67332 0.0042931 0.0025 0.546449 0.429185 1.96352 0.00914999 28 4 1 -2.25301e-10 
1.44485 -0.67334 0.00470299 0.0025 0.546441 0.429173 1.9635 0.00915012 29 4 1 -1.89039e-09 
1.44943 -0.673361 0.00509321 0.0025 0.546432 0.429161 1.96347 0.00915027 30 4 1 -6.39392e-10 
1.454 -0.673386 0.00551147 0.0025 0.546422 0.429146 1.96344 0.00915044 31 4 1 6.73554e-10 
1.45858 -0.673413 0.00605103 0.0025 0.54641 0.429131 1.96341 0.00915064 32 4 1 -2.49894e-09 
1.46316 -0.673442 0.00677066 0.0025 0.546397 0.429114 1.96338 0.00915086 33 4 1 -2.93001e-09 
1.46773 -0.673475 0.00763582 0.0025 0.546382 0.429095 1.96335 0.00915111 34 4 1 -3.69033e-10 
1.47231 -0.673511 0.00855345 0.0025 0.546364 0.429074 1.96331 0.0091514 35 4 1 -2.89744e-09 
1.47688 -0.67355 0.00946944 0.0025 0.546345 0.42905 1.96328 0.00915173 36 4 1 -3.67932e-09 
1.48146 -0.673595 0.010429 0.0025 0.546323 0.429024 1.96323 0.0091521 37 4 1 -1.60449e-09 
1.48603 -0.673645 0.0115517 0.0025 0.546297 0.428994 1.96319 0.00915252 38 4 1 -3.4354e-09 
1.49061 -0.673702 0.0129545 0.0025 0.546269 0.428961 1.96314 0.00915299 39 4 1 -5.01441e-09 
1.49519 -0.673766 0.0146782 0.0025 0.546237 0.428925 1.96309 0.00915353 40 4 1 -4.40991e-09 
1.49976 -0.673837 0.0166712 0.0025 0.546201 0.428883 1.96303 0.00915414 41 4 1 -5.40613e-09 
-0.495659 -0.673917 0.0188517 0.0025 0.54616 0.428836 1.96296 0.00915483 42 4 1 -7.01248e-09 
-0.491081 -0.674007 0.0211882 0.0025 0.546113 0.428783 1.96289 0.00915562 43 4 1 -6.82891e-09 
-0.486503 -0.674108 0.0237302 0.0025 0.54606 0.428723 1.9628 0.00915651 44 4 1 -6.30647e-09 
-0.481924 -0.674221 0.0265497 0.0025 0.546 0.428656 1.96271 0.00915751 45 4 1 -8.04972e-09 
-0.477345 -0.674348 0.029581 0.0025 0.545934 0.428582 1.96261 0.00915862 46 4 1 -8.39509e-09 
-0.472766 -0.674488 0.0325647 0.0025 0.545861 0.428501 1.9625 0.00915984 47 4 1 -6.29783e-09 
-0.468186 -0.674641 0.0352961 0.0025 0.545782 0.428413 1.96238 0.00916116 48 4 1 -5.05564e-09 
-0.463605 -0.674805 0.0376435 0.0025 0.545698 0.42832 1.96226 0.00916257 49 4 1 -3.5095e-09 
-0.459023 -0.674977 0.0391515 0.0025 0.545612 0.428224 1.96213 0.00916403 50 4 1 5.64809e-10 
-0.454441 -0.675149 0.0393913 0.0025 0.545525 0.428128 1.962 0.00916548 51 4 1 6.43529e-09 
-0.449858 -0.675314 0.0378661 0.0025 0.545443 0.428037 1.96188 0.00916686 52 4 1 1.26197e-08 
-0.445274 -0.675461 0.0329076 0.0025 0.545371 0.427958 1.96177 0.00916806 53 4 1 2.32704e-08 
-0.44069 -0.675582 0.0221855 0.0025 0.545319 0.4279 1.96169 0.00916894 54 4 1 3.30847e-08 
-0.436105 -0.675667 0.00841908 0.0025 0.545294 0.427871 1.96165 0.00916936 55 5 1 2.99833e-08 
-0.43152 -0.675742 0.0157715 0.0025 0.545295 0.427875 1.96164 0.00916935 56 4 1 1.28599e-07 
-0.426936 -0.675599 -0.0872574 0.0025 0.545402 0.427994 1.96179 0.00916756 57 4 1 1.96798e-07 
-0.422353 -0.675065 -0.129294 0.0025 0.545669 0.428289 1.96217 0.00916306 58 4 1 2.48369e-07 
-0.417772 -0.674334 -0.223461 0.0025 0.546138 0.428816 1.96284 0.0091552 59 4 1 6.27092e-07 
-0.413197 -0.67269 -0.545634 0.0025 0.547086 0.429874 1.9642 0.00913933 60 4 1 1.12605e-06 
-0.408633 -0.669345 -0.979713 0.0025 0.54883 0.431794 1.9667 0.00911029 61 4 1 1.30254e-06 
-0.404087 -0.664372 -1.30198 0.0025 0.551381 0.434597 1.97035 0.00906814 62 4 1 1.22431e-06 
-0.399565 -0.658307 -1.51444 0.0025 0.554549 0.438093 1.97487 0.00901633 63 4 1 1.29472e-06 
-0.395071 -0.651323 -1.75665 0.0025 0.558254 0.4422 1.98013 0.00895649 64 4 1 1.58173e-06 
-0.390608 -0.643272 -2.05199 0.0025 0.562556 0.44698 1.98622 0.00888801 65 4 1 1.89845e-06 
-0.386182 -0.634007 -2.36246 0.0025 0.567504 0.452494 1.99319 0.00881051 66 4 1 2.15524e-06 
-0.381798 -0.623605 -2.66282 0.0025 0.573087 0.458734 2.00101 0.00872467 67 4 1 2.24214e-06 
-0.377458 -0.612254 -2.87354 0.0025 0.579194 0.465583 2.00951 0.00863269 68 4 1 2.12366e-06 
-0.373165 -0.600434 -2.97573 0.0025 0.585623 0.472825 2.0184 0.00853791 69 4 1 1.95185e-06 
-0.368919 -0.588493 -3.01891 0.0025 0.592199 0.480268 2.02743 0.00844311 70 4 1 1.77472e-06 
-0.364721 -0.576634 -3.00754 0.0025 0.598795 0.487769 2.03643 0.0083501 71 4 1 1.62864e-06 
-0.360569 -0.565002 -2.98726 0.0025 0.605336 0.495241 2.0453 0.00825988 72 4 1 1.47271e-06 
-0.356461 -0.553674 -2.92073 0.0025 0.611765 0.502617 2.05396 0.00817308 73 4 1 1.36373e-06 
-0.352396 -0.542684 -2.88201 0.0025 0.61806 0.509873 2.06238 0.00808983 74 4 1 1.29428e-06 
-0.348371 -0.532 -2.83023 0.0025 0.624232 0.517014 2.0706 0.00800984 75 4 1 1.21025e-06 
-0.344386 -0.521609 -2.78088 0.0025 0.630276 0.524035 2.07859 0.00793304 76 4 1 1.16357e-06 
-0.340438 -0.511526 -2.74261 0.0025 0.636208 0.530954 2.08639 0.00785906 77 4 1 1.16331e-06 
-0.336526 -0.501619 -2.73298 0.0025 0.642068 0.537814 2.09405 0.00778734 78 4 1 1.1707e-06 
-0.33265 -0.491869 -2.72507 0.0025 0.647891 0.544657 2.10163 0.00771734 79 4 1 1.21821e-06 
-0.328809 -0.482156 -2.76151 0.0025 0.653728 0.551541 2.10917 0.00764844 80 4 1 1.31904e-06 
-0.325002 -0.472371 -2.83162 0.0025 0.659648 0.558549 2.11679 0.0075798 81 4 1 1.39125e-06 
-0.321229 -0.462417 -2.9046 0.0025 0.665691 0.565725 2.12453 0.00751099 82 4 1 1.44132e-06 
-0.317491 -0.452352 -2.98443 0.0025 0.671868 0.573088 2.13239 0.00744194 83 4 1 1.48696e-06 
-0.313787 -0.442113 -3.06665 0.0025 0.678186 0.580646 2.14039 0.0073726 84 4 1 1.50488e-06 
-0.310118 -0.431743 -3.13699 0.0025 0.684633 0.588386 2.1485 0.00730318 85 4 1 1.47839e-06 
-0.306483 -0.42126 -3.17945 0.0025 0.691171 0.596265 2.15668 0.00723409 86 4 1 1.42226e-06 
-0.302884 -0.410845 -3.19712 0.0025 0.697755 0.604231 2.16487 0.00716584 87 4 1 1.41883e-06 
-0.299317 -0.400413 -3.24373 0.0025 0.704379 0.612275 2.17307 0.00709846 88 4 1 1.3813e-06 
-0.295785 -0.39002 -3.24248 0.0025 0.711024 0.620376 2.18125 0.00703211 89 4 1 1.34531e-06 
-0.292285 -0.379749 -3.26794 0.0025 0.717673 0.628512 2.18938 0.00696696 90 4 1 1.3328e-06 
-0.288818 -0.369507 -3.2771 0.0025 0.724328 0.636685 2.19748 0.00690295 91 4 1 1.26729e-06 
-0.285382 -0.359389 -3.26256 0.0025 0.73096 0.644861 2.2055 0.00684032 92 4 1 1.2602e-06 
-0.281977 -0.349377 -3.28695 0.0025 0.737577 0.653048 2.21347 0.00677895 93 4 1 1.22794e-06 
-0.278603 -0.339431 -3.26783 0.0025 0.744177 0.661243 2.22137 0.00671883 94 4 1 1.21069e-06 
-0.275258 -0.329614 -3.29362 0.0025 0.750761 0.669449 2.22921 0.00665991 95 4 1 1.21664e-06 
-0.271943 -0.319814 -3.30305 0.0025 0.75735 0.677686 2.23701 0.00660197 96 4 1 1.14622e-06 
-0.268656 -0.310167 -3.27755 0.0025 0.763908 0.685917 2.24474 0.00654529 97 4 1 1.15932e-06 
-0.265398 -0.300589 -3.31972 0.0025 0.770457 0.694163 2.25242 0.00648965 98 4 1 1.13509e-06 
-0.262166 -0.291067 -3.29575 0.0025 0.776998 0.702425 2.26005 0.00643502 99 4 1 1.06957e-06 
-0.258962 -0.281722 -3.28614 0.0025 0.783497 0.710666 2.26759 0.00638165 100 4 1 1.12001e-06 
-0.255785 -0.27241 -3.33629 0.0025 0.790004 0.718943 2.2751 0.00632908 101 4 1 1.09849e-06 
-0.252633 -0.263086 -3.32345 0.0025 0.796518 0.727252 2.28259 0.00627733 102 4 1 9.98528e-07 
-0.249507 -0.253974 -3.28259 0.0025 0.802978 0.735525 2.28997 0.00622682 103 4 1 1.06318e-06 
-0.246406 -0.244896 -3.3594 0.0025 0.809442 0.743829 2.29733 0.00617709 104 4 1 1.05474e-06 
-0.24333 -0.2358 -3.33392 0.0025 0.815921 0.752173 2.30467 0.00612805 105 4 1 9.25934e-07 
-0.240278 -0.22693 -3.28109 0.0025 0.822329 0.760458 2.31189 0.00608029 106 4 1 9.79098e-07 
-0.23725 -0.218154 -3.33756 0.0025 0.828721 0.768751 2.31906 0.00603339 107 4 1 1.05397e-06 
-0.234245 -0.20925 -3.38868 0.0025 0.835167 0.77713 2.32626 0.00598683 108 4 1 9.02408e-07 
-0.231263 -0.200548 -3.28547 0.0025 0.841562 0.785473 2.33337 0.00594133 109 4 1 8.93326e-07 
-0.228303 -0.19201 -3.33719 0.0025 0.847908 0.793782 2.34039 0.00589687 110 4 1 1.01067e-06 
-0.225366 -0.183352 -3.39994 0.0025 0.854309 0.802182 2.34744 0.00585268 111 4 1 9.18244e-07 
-0.22245 -0.174765 -3.35396 0.0025 0.860702 0.810592 2.35445 0.00580921 112 4 1 7.58661e-07 
-0.219557 -0.166463 -3.24728 0.0025 0.866977 0.818882 2.3613 0.00576717 113 4 1 8.84674e-07 
-0.216683 -0.158229 -3.37457 0.0025 0.873248 0.827193 2.36811 0.00572575 114 4 1 1.0294e-06 
-0.213831 -0.149729 -3.45725 0.0025 0.879637 0.835669 2.37504 0.00568416 115 4 1 7.52351e-07 
-0.210999 -0.141471 -3.25859 0.0025 0.885936 0.844055 2.38182 0.00564375 116 4 1 6.87894e-07 
-0.208187 -0.133567 -3.27538 0.0025 0.892105 0.852307 2.38843 0.00560472 117 4 1 1.02255e-06 
-0.205394 -0.12538 -3.51317 0.0025 0.898419 0.860764 2.39519 0.00556533 118 4 1 9.17044e-07 
-0.202621 -0.117024 -3.4122 0.0025 0.904801 0.86932 2.40198 0.00552608 119 4 1 5.05591e-07 
-0.199868 -0.109279 -3.14858 0.0025 0.910931 0.87758 2.40847 0.00548889 120 4 1 7.02001e-07 
-0.197133 -0.101724 -3.32498 0.0025 0.916984 0.885772 2.41486 0.00545266 121 4 1 1.06639e-06 
-0.194415 -0.0936562 -3.54778 0.0025 0.923274 0.894279 2.42148 0.00541551 122 4 1 7.43453e-07 
-0.191717 -0.085667 -3.31082 0.0025 0.929541 0.902776 2.42804 0.005379 123 4 1 4.532e-07 
-0.189036 -0.0782925 -3.16527 0.0025 0.935549 0.910968 2.43429 0.00534446 124 4 1 7.95845e-07 
-0.186372 -0.0708 -3.41139 0.0025 0.941598 0.919233 2.44058 0.00531012 125 4 1 9.44815e-07 
-0.183726 -0.0629489 -3.47947 0.0025 0.947828 0.927745 2.44703 0.00527522 126 4 1 5.4518e-07 
-0.181097 -0.0554454 -3.20311 0.0025 0.953915 0.936093 2.4533 0.00524156 127 4 1 5.49644e-07 
-0.178484 -0.048278 -3.29721 0.0025 0.959854 0.944276 2.4594 0.00520913 128 4 1 8.16015e-07 
-0.175888 -0.0408088 -3.42899 0.0025 0.965878 0.95257 2.46557 0.00517664 129 4 1 3.39317e-07 
-0.173308 -0.0337228 -2.93081 0.0025 0.971644 0.960525 2.47144 0.00514592 130 4 1 1.27571e-07 
-0.170742 -0.0276212 -2.78323 0.0025 0.977028 0.968027 2.47688 0.00511756 131 4 1 1.42029e-06 
-0.16819 -0.0204304 -4.0137 0.0025 0.983076 0.97645 2.48302 0.00508608 132 4 1 1.56871e-06 
-0.165656 -0.0115095 -4.06195 0.0025 0.989825 0.985751 2.48989 0.0050514 133 4 1 -1.22475e-06 
-0.163139 -0.00522137 -1.61659 0.0025 0.994986 0.992914 2.49503 0.00502519 134 4 1 -1.39557e-06 
-0.160631 -0.0024646 -1.43173 0.0025 0.998477 0.997945 2.49843 0.00500763 135 4 1 2.61481e-06 
-0.158131 0.00386645 -4.72495 0.0025 1.00386 1.00553 2.50388 0.00498079 136 4 1 2.61313e-06 
-0.15565 0.0141363 -4.47853 0.0025 1.01104 1.01541 2.51115 0.00494542 137 4 1 -2.71059e-06 
-0.153186 0.0191831 -0.570074 0.0025 1.01534 1.02141 2.51535 0.00492445 138 4 1 -2.69145e-06 
-0.150725 0.0189625 0.144764 0.0025 1.0166 1.02338 2.51649 0.00491833 139 4 1 1.71862e-06 
-0.148267 0.0223739 -2.98916 0.0025 1.01919 1.02702 2.51912 0.00490587 140 4 1 6.31231e-07 
-0.145819 0.0271874 -1.29898 0.0025 1.02236 1.03135 2.52231 0.00489066 141 4 1 -2.32111e-06 
-0.143377 0.0276945 0.256299 0.0025 1.02306 1.03237 2.52296 0.00488729 142 3 1 -1.44991e-06 
-0.140932 0.0263932 0.809964 0.0025 1.02194 1.03084 2.52184 0.00489265 143 4 1 -5.21969e-07 
-0.138484 0.0243207 1.08771 0.0025 1.02014 1.02831 2.52005 0.00490129 144 4 1 -1.94858e-07 
-0.136031 0.0218686 1.22861 0.0025 1.01803 1.02534 2.51796 0.00491144 145 4 1 -2.17423e-08 
-0.133573 0.0192471 1.28402 0.0025 1.0158 1.0222 2.51574 0.00492223 146 4 1 8.74561e-08 
-0.131109 0.0165988 1.27692 0.0025 1.01357 1.01905 2.51352 0.00493308 147 4 1 1.59012e-07 
-0.128639 0.0140278 1.22435 0.0025 1.01142 1.01603 2.51138 0.00494357 148 4 1 2.05173e-07 
-0.126165 0.011612 1.13784 0.0025 1.00941 1.01321 2.50939 0.00495339 149 4 1 2.31991e-07 
-0.123686 0.00940838 1.02705 0.0025 1.00759 1.01066 2.50758 0.00496232 150 4 1 2.43159e-07 
-0.121203 0.00745559 0.900773 0.0025 1.00599 1.00841 2.50598 0.00497021 151 4 1 2.41191e-07 
-0.118716 0.00577446 0.76747 0.0025 1.00463 1.00649 2.50462 0.00497697 152 4 1 2.28454e-07 
-0.116226 0.00436887 0.635051 0.0025 1.00349 1.0049 2.50348 0.00498262 153 4 1 2.07574e-07 
-0.113733 0.00322766 0.510279 0.0025 1.00257 1.00361 2.50256 0.00498718 154 4 1 1.81435e-07 
-0.111239 0.00232788 0.398207 0.0025 1.00185 1.0026 2.50184 0.00499077 155 4 1 1.52889e-07 
-0.108742 0.00163876 0.301884 0.0025 1.0013 1.00182 2.5013 0.00499351 156 4 1 1.2443e-07 
-0.106245 0.00112589 0.222421 0.0025 1.00089 1.00125 2.50089 0.00499555 157 4 1 9.79578e-08 
-0.103747 0.000754811 0.15933 0.0025 1.0006 1.00084 2.50059 0.00499702 158 4 1 7.46937e-08 
-0.101248 0.000493681 0.11101 0.0025 1.00039 1.00055 2.50039 0.00499805 159 4 1 5.52219e-08 
-0.0987488 0.000314907 0.075245 0.0025 1.00025 1.00035 2.50025 0.00499876 160 4 1 3.96155e-08 
-0.0962493 0.000195815 0.0496223 0.0025 1.00015 1.00022 2.50015 0.00499923 161 4 1 2.7592e-08 
-0.0937496 0.00011862 0.0318353 0.0025 1.00009 1.00013 2.50009 0.00499953 162 4 1 1.8664e-08 
-0.0912498 6.99432e-05 0.0198622 0.0025 1.00006 1.00008 2.50005 0.00499972 163 4 1 1.2262e-08 
-0.0887499 4.00988e-05 0.0120441 0.0025 1.00003 1.00004 2.50003 0.00499984 164 4 1 7.82318e-09 
-0.0862499 2.232e-05 0.00709184 0.0025 1.00002 1.00002 2.50002 0.00499991 165 4 1 4.84485e-09 
-0.08375 1.20405e-05 0.00404993 0.0025 1.00001 1.00001 2.50001 0.00499995 166 4 1 2.9103e-09 
-0.08125 6.28012e-06 0.00223934 0.0025 1 1.00001 2.5 0.00499998 167 4 1 1.69392e-09 
-0.07875 3.15757e-06 0.00119626 0.0025 1 1 2.5 0.00499999 168 4 1 9.53894e-10 
-0.07625 1.52429e-06 0.000615613 0.0025 1 1 2.5 0.00499999 169 4 1 5.18672e-10 
-0.07375 7.02706e-07 0.000304001 0.0025 1 1 2.5 0.005 170 4 1 2.71584e-10 
-0.07125 3.0703e-07 0.000143288 0.0025 1 1 2.5 0.005 171 4 1 1.36445e-10 
-0.06875 1.25734e-07 6.39723e-05 0.0025 1 1 2.5 0.005 172 4 1 6.54445e-11 
-0.06625 4.74209e-08 2.67443e-05 0.0025 1 1 2.5 0.005 173 4 1 2.97535e-11 
-0.06375 1.59784e-08 1.0276e-05 0.0025 1 1 2.5 0.005 174 4 1 1.26844e-11 
-0.06125 4.52417e-09 3.50457e-06 0.0025 1 1 2.5 0.005 175 4 1 4.983e-12 
-0.05875 9.10859e-10 9.81466e-07 0.0025 1 1 2.5 0.005 176 4 1 1.74757e-12 
-0.05625 3.32557e-11 1.88929e-07 0.0025 1 1 2.5 0.005 177 4 1 5.29094e-13 
-0.05375 -1.26081e-11 -7.86225e-08 0.0025 1 1 2.5 0.005 178 5 1 8.72991e-14 
-0.05125 6.72583e-11 -1.62431e-08 0.0025 1 1 2.5 0.005 179 4 1 -3.75557e-14 
-0.04875 6.4121e-11 8.14543e-09 0.0025 1 1 2.5 0.005 180 3 1 -1.18568e-14 
-0.04625 4.23348e-11 1.15176e-08 0.0025 1 1 2.5 0.005 181 4 1 1.76712e-15 
-0.04375 2.30932e-11 8.43539e-09 0.0025 1 1 2.5 0.005 182 4 1 4.46185e-15 
-0.04125 1.09212e-11 4.86068e-09 0.0025 1 1 2.5 0.005 183 4 1 3.59606e-15 
-0.03875 4.50324e-12 2.38822e-09 0.0025 1 1 2.5 0.005 184 4 1 2.18208e-15 
-0.03625 1.58818e-12 1.00965e-09 0.0025 1 1 2.5 0.005 185 4 1 1.09424e-15 
-0.03375 4.47409e-13 3.61126e-10 0.0025 1 1 2.5 0.005 186 4 1 4.77129e-16 
-0.03125 7.97296e-14 1.00044e-10 0.0025 1 1 2.5 0.005 187 4 1 2.17071e-16 
-0.02875 -9.51783e-15 1.94404e-11 0.0025 1 1 2.5 0.005 188 4 1 2.0961e-17 
-0.02625 -5.38687e-15 -1.3415e-11 0.0025 1 1 2.5 0.005 189 5 1 1.10134e-17 
-0.02375 8.08047e-15 -2.27374e-13 0.0025 1 1 2.5 0.005 190 3 1 -5.32907e-18 
-0.02125 6.40773e-15 1.42109e-12 0.0025 1 1 2.5 0.005 191 4 1 1.10934e-32 
-0.01875 4.37784e-15 7.95808e-13 0.0025 1 1 2.5 0.005 192 4 1 2.13163e-18 
-0.01625 3.25663e-15 1.64846e-12 0.0025 1 1 2.5 0.005 193 4 1 -2.84217e-18 
-0.01375 7.86446e-16 -4.54747e-13 0.0025 1 1 2.5 0.005 194 5 1 4.26326e-18 
-0.01125 8.21484e-16 -3.41061e-13 0.0025 1 1 2.5 0.005 195 4 1 -3.90799e-18 
-0.00875 1.51306e-15 -2.27374e-13 0.0025 1 1 2.5 0.005 196 3 1 0 
-0.00625 1.1587e-15 6.25278e-13 0.0025 1 1 2.5 0.005 197 5 1 3.55271e-19 
-0.00375 6.33811e-16 -4.54747e-13 0.0025 1 1 2.5 0.005 198 4 1 1.2326e-33 
-0.00125 6.60694e-16 2.27374e-13 0.0025 1 1 2.5 0.005 199 4 1 3.77482e-33 
0.00125 9.34017e-16 -4.54747e-13 0.0025 1 1 2.5 0.005 200 4 1 -1.06581e-18 
0.00375 6.95044e-16 2.27374e-13 0.0025 1 1 2.5 0.005 201 3 1 0 
0.00625 1.48401e-15 5.68434e-14 0.0025 1 1 2.5 0.005 202 3 1 7.10543e-19 
0.00875 1.29704e-15 -5.68434e-14 0.0025 1 1 2.5 0.005 203 3 1 1.42109e-18 
0.01125 8.32946e-16 -3.97904e-13 0.0025 1 1 2.5 0.005 204 3 1 1.42109e-18 
0.01375 1.56845e-15 9.66338e-13 0.0025 1 1 2.5 0.005 205 5 1 -3.55271e-18 
0.01625 1.88169e-15 -1.02318e-12 0.0025 1 1 2.5 0.005 206 4 1 -1.77636e-18 
0.01875 2.13032e-15 4.54747e-13 0.0025 1 1 2.5 0.005 207 4 1 -3.55271e-19 
0.02125 -9.2788e-16 -1.13687e-12 0.0025 1 1 2.5 0.005 208 4 1 3.55271e-19 
0.02375 4.9945e-16 -1.13687e-13 0.0025 1 1 2.5 0.005 209 3 1 1.06581e-17 
0.02625 5.75265e-15 1.02887e-11 0.0025 1 1 2.5 0.005 210 5 1 -2.16716e-17 
0.02875 1.14307e-14 -1.37561e-11 0.0025 1 1 2.5 0.005 211 4 1 6.14619e-17 
0.03125 -7.26924e-14 -1.01181e-10 0.0025 1 1 2.5 0.005 212 4 1 1.99663e-16 
0.03375 -4.45021e-13 -3.60558e-10 0.0025 1 1 2.5 0.005 213 4 1 4.67182e-16 
0.03625 -1.58604e-12 -1.01181e-09 0.0025 1 1 2.5 0.005 214 4 1 1.09033e-15 
0.03875 -4.49467e-12 -2.38697e-09 0.0025 1 1 2.5 0.005 215 4 1 2.19558e-15 
0.04125 -1.09115e-11 -4.85704e-09 0.0025 1 1 2.5 0.005 216 4 1 3.59108e-15 
0.04375 -2.3085e-11 -8.43949e-09 0.0025 1 1 2.5 0.005 217 4 1 4.45723e-15 
0.04625 -4.23305e-11 -1.15137e-08 0.0025 1 1 2.5 0.005 218 4 1 1.77671e-15 
0.04875 -6.41111e-11 -8.14703e-09 0.0025 1 1 2.5 0.005 219 3 1 -1.18558e-14 
0.05125 -6.72471e-11 1.62428e-08 0.0025 1 1 2.5 0.005 220 4 1 -3.75589e-14 
0.05375 1.26121e-11 7.86189e-08 0.0025 1 1 2.5 0.005 221 5 1 8.72983e-14 
0.05625 -3.32562e-11 -1.88929e-07 0.0025 1 1 2.5 0.005 222 4 1 5.29107e-13 
0.05875 -9.10856e-10 -9.81463e-07 0.0025 1 1 2.5 0.005 223 4 1 1.7475e-12 
