# Time [s]: 0.283226
# Columns: pos [m], vel [m/s], acc [m/s^2], mass [kg], dens [kg/m^3], pres [Pa], ene [J/kg], sml [m], id, neighbor, alpha, gradh, ...additional?
1.31159 -0.67311 0.000488937 0.0025 0.511044 0.432719 2.15249 0.00978389 0 4 1 -0.000134226 
1.31637 -0.673113 0.000564727 0.0025 0.5369 0.426181 1.95003 0.00931272 1 4 1 0.000179251 
1.32091 -0.673116 0.000634056 0.0025 0.548229 0.43085 1.96849 0.00912028 2 3 1 -1.90587e-05 
1.32549 -0.673118 0.000697045 0.0025 0.545963 0.429184 1.96463 0.00915813 3 5 1 3.48578e-06 
1.33006 -0.673121 0.0007505 0.0025 0.54636 0.429338 1.96456 0.00915148 4 4 1 -1.38816e-07 
1.33464 -0.673124 0.000797222 0.0025 0.546369 0.429306 1.96433 0.00915132 5 4 1 1.43599e-07 
1.33922 -0.673127 0.000844463 0.0025 0.546391 0.429303 1.96427 0.00915096 6 4 1 -3.64402e-09 
1.34379 -0.67313 0.00089923 0.0025 0.546402 0.429299 1.9642 0.00915077 7 4 1 8.08405e-09 
1.34837 -0.673134 0.000962769 0.0025 0.546415 0.429296 1.96415 0.00915056 8 4 1 4.59554e-09 
1.35294 -0.673137 0.00102965 0.0025 0.546425 0.429293 1.9641 0.00915039 9 4 1 5.30051e-09 
1.35752 -0.673141 0.00109342 0.0025 0.546434 0.429291 1.96405 0.00915023 10 4 1 -2.41076e-09 
1.36209 -0.673146 0.00115417 0.0025 0.546443 0.429288 1.96401 0.00915009 11 4 1 4.55846e-09 
1.36667 -0.673151 0.00122055 0.0025 0.546451 0.429285 1.96397 0.00914996 12 4 1 2.66272e-09 
1.37124 -0.673156 0.00130285 0.0025 0.546457 0.429281 1.96393 0.00914985 13 4 1 3.34517e-09 
1.37582 -0.673162 0.00140334 0.0025 0.546462 0.429278 1.96389 0.00914977 14 4 1 1.85251e-09 
1.38039 -0.673168 0.0015136 0.0025 0.546466 0.429274 1.96386 0.00914969 15 4 1 -1.871e-09 
1.38497 -0.673175 0.00162277 0.0025 0.54647 0.42927 1.96383 0.00914963 16 4 1 4.61205e-09 
1.38954 -0.673182 0.0017293 0.0025 0.546473 0.429265 1.9638 0.00914958 17 4 1 1.19019e-09 
1.39412 -0.67319 0.00184471 0.0025 0.546475 0.429261 1.96377 0.00914955 18 4 1 -1.51259e-09 
1.39869 -0.673199 0.00198483 0.0025 0.546476 0.429256 1.96374 0.00914953 19 4 1 2.32085e-09 
1.40327 -0.673208 0.00215649 0.0025 0.546477 0.42925 1.96372 0.00914952 20 3 1 7.18019e-10 
1.40784 -0.673218 0.00235136 0.0025 0.546476 0.429244 1.96369 0.00914953 21 4 1 6.85796e-10 
1.41242 -0.673229 0.00255274 0.0025 0.546475 0.429238 1.96367 0.00914955 22 4 1 5.30537e-10 
1.41699 -0.673241 0.00275037 0.0025 0.546473 0.429231 1.96364 0.00914959 23 4 1 -7.03052e-10 
1.42157 -0.673253 0.00295269 0.0025 0.54647 0.429224 1.96362 0.00914963 24 4 1 9.1725e-10 
1.42614 -0.673267 0.00318671 0.0025 0.546466 0.429216 1.9636 0.00914969 25 4 1 8.47084e-11 
1.43071 -0.673283 0.00348166 0.0025 0.546462 0.429207 1.96357 0.00914977 26 4 1 -1.16512e-09 
1.43529 -0.673299 0.00384384 0.0025 0.546457 0.429197 1.96355 0.00914986 27 4 1 2.58739e-10 
1.43986 -0.673317 0.00424382 0.0025 0.54645 0.429187 1.96352 0.00914997 28 4 1 -1.9629e-10 
1.44444 -0.673337 0.00463723 0.0025 0.546442 0.429175 1.9635 0.0091501 29 4 1 -1.84971e-09 
1.44901 -0.673358 0.0050138 0.0025 0.546433 0.429162 1.96347 0.00915024 30 4 1 -6.06285e-10 
1.45359 -0.673382 0.00542952 0.0025 0.546423 0.429149 1.96344 0.00915041 31 4 1 6.84711e-10 
1.45817 -0.673409 0.00597489 0.0025 0.546412 0.429133 1.96342 0.00915061 32 4 1 -2.50084e-09 
1.46274 -0.673438 0.00669493 0.0025 0.546399 0.429117 1.96339 0.00915082 33 4 1 -2.91633e-09 
1.46732 -0.67347 0.0075433 0.0025 0.546384 0.429098 1.96335 0.00915107 34 4 1 -3.1777e-10 
1.47189 -0.673505 0.00842919 0.0025 0.546367 0.429077 1.96332 0.00915135 35 4 1 -2.8148e-09 
1.47647 -0.673545 0.00931213 0.0025 0.546348 0.429054 1.96328 0.00915168 36 4 1 -3.59345e-09 
1.48104 -0.673588 0.0102496 0.0025 0.546326 0.429027 1.96324 0.00915205 37 4 1 -1.54032e-09 
1.48562 -0.673638 0.0113628 0.0025 0.546301 0.428999 1.9632 0.00915246 38 4 1 -3.3949e-09 
1.4902 -0.673694 0.0127584 0.0025 0.546274 0.428966 1.96315 0.00915292 39 4 1 -4.97504e-09 
1.49477 -0.673757 0.0144624 0.0025 0.546242 0.42893 1.96309 0.00915345 40 4 1 -4.34219e-09 
1.49935 -0.673827 0.0164165 0.0025 0.546207 0.428889 1.96304 0.00915405 41 4 1 -5.29899e-09 
-0.496074 -0.673906 0.0185458 0.0025 0.546166 0.428843 1.96297 0.00915473 42 4 1 -6.88445e-09 
-0.491496 -0.673994 0.0208344 0.0025 0.54612 0.42879 1.9629 0.00915551 43 4 1 -6.71679e-09 
-0.486918 -0.674093 0.0233445 0.0025 0.546067 0.428731 1.96282 0.00915638 44 4 1 -6.23814e-09 
-0.48234 -0.674205 0.0261424 0.0025 0.546009 0.428666 1.96273 0.00915736 45 4 1 -8.01919e-09 
-0.477761 -0.67433 0.0291455 0.0025 0.545944 0.428593 1.96263 0.00915845 46 4 1 -8.3943e-09 
-0.473181 -0.674468 0.0321133 0.0025 0.545872 0.428513 1.96252 0.00915966 47 4 1 -6.38791e-09 
-0.468601 -0.674619 0.0348884 0.0025 0.545794 0.428426 1.9624 0.00916097 48 4 1 -5.31525e-09 
-0.46402 -0.674782 0.037331 0.0025 0.545711 0.428334 1.96227 0.00916236 49 4 1 -3.94576e-09 
-0.459439 -0.674953 0.0389964 0.0025 0.545624 0.428238 1.96215 0.00916381 50 4 1 -1.03018e-10 
-0.454856 -0.675125 0.0395118 0.0025 0.545538 0.428142 1.96202 0.00916527 51 4 1 5.62598e-09 
-0.450273 -0.67529 0.0381694 0.0025 0.545455 0.42805 1.96189 0.00916666 52 4 1 1.1939e-08 
-0.44569 -0.67544 0.0332803 0.0025 0.545381 0.427969 1.96178 0.0091679 53 4 1 2.24233e-08 
-0.441106 -0.675568 0.0230419 0.0025 0.545327 0.427909 1.9617 0.00916881 54 4 1 3.35666e-08 
-0.436521 -0.675661 0.0096042 0.0025 0.5453 0.427877 1.96166 0.00916926 55 4 1 2.35192e-08 
-0.431936 -0.67573 0.0208548 0.0025 0.545294 0.427873 1.96164 0.00916937 56 5 1 1.10447e-07 
-0.427352 -0.675648 -0.0724943 0.0025 0.545378 0.427969 1.96176 0.00916795 57 4 1 1.97204e-07 
-0.422768 -0.675144 -0.128533 0.0025 0.545624 0.428239 1.96211 0.00916382 58 4 1 2.27597e-07 
-0.418188 -0.674463 -0.197487 0.0025 0.546055 0.428723 1.96272 0.00915658 59 4 1 5.49868e-07 
-0.413612 -0.673007 -0.485921 0.0025 0.546911 0.42968 1.96395 0.00914226 60 4 1 1.06612e-06 
-0.409045 -0.66993 -0.920128 0.0025 0.54853 0.431464 1.96627 0.00911528 61 4 1 1.30036e-06 
-0.404496 -0.665162 -1.26425 0.0025 0.550974 0.434149 1.96977 0.00907484 62 4 1 1.23268e-06 
-0.399971 -0.65923 -1.48368 0.0025 0.554061 0.437553 1.97417 0.00902428 63 4 1 1.26697e-06 
-0.395472 -0.652392 -1.7171 0.0025 0.557684 0.441566 1.97932 0.00896565 64 4 1 1.52669e-06 
-0.391005 -0.64452 -2.00276 0.0025 0.561888 0.446237 1.98528 0.00889856 65 4 1 1.84581e-06 
-0.386573 -0.635447 -2.31278 0.0025 0.566732 0.451632 1.9921 0.00882251 66 4 1 2.11566e-06 
-0.382182 -0.62523 -2.6153 0.0025 0.572215 0.457757 1.99979 0.00873798 67 4 1 2.23386e-06 
-0.377835 -0.614015 -2.84388 0.0025 0.578242 0.464513 2.00819 0.0086469 68 4 1 2.14262e-06 
-0.373535 -0.602261 -2.95963 0.0025 0.584623 0.471696 2.01702 0.00855252 69 4 1 1.97066e-06 
-0.369282 -0.590349 -3.00972 0.0025 0.591173 0.479105 2.02603 0.00845776 70 4 1 1.79324e-06 
-0.365077 -0.578485 -3.00486 0.0025 0.597759 0.486589 2.03502 0.00836457 71 4 1 1.64596e-06 
-0.360917 -0.566842 -2.98739 0.0025 0.604301 0.494056 2.0439 0.00827403 72 4 1 1.48862e-06 
-0.356803 -0.555474 -2.9244 0.0025 0.610736 0.501435 2.05258 0.00818684 73 4 1 1.37382e-06 
-0.35273 -0.544459 -2.88355 0.0025 0.617041 0.508696 2.06102 0.00810319 74 4 1 1.30027e-06 
-0.348699 -0.533743 -2.83229 0.0025 0.623221 0.515842 2.06925 0.00802284 75 4 1 1.22042e-06 
-0.344707 -0.523323 -2.78552 0.0025 0.629275 0.52287 2.07727 0.00794566 76 4 1 1.16337e-06 
-0.340753 -0.513214 -2.74049 0.0025 0.635212 0.529791 2.08508 0.00787138 77 4 1 1.15814e-06 
-0.336836 -0.503301 -2.73087 0.0025 0.641071 0.536645 2.09275 0.00779945 78 4 1 1.16301e-06 
-0.332954 -0.493544 -2.71773 0.0025 0.646887 0.543475 2.10032 0.00772932 79 4 1 1.20025e-06 
-0.329106 -0.483852 -2.74772 0.0025 0.652705 0.550333 2.10785 0.00766043 80 4 1 1.29527e-06 
-0.325293 -0.474108 -2.81084 0.0025 0.658594 0.5573 2.11544 0.00759193 81 4 1 1.37733e-06 
-0.321514 -0.464201 -2.8882 0.0025 0.664603 0.564431 2.12314 0.00752329 82 4 1 1.42794e-06 
-0.31777 -0.454183 -2.96264 0.0025 0.670744 0.571746 2.13096 0.00745441 83 4 1 1.47176e-06 
-0.31406 -0.443995 -3.04613 0.0025 0.677024 0.579253 2.13892 0.00738527 84 4 1 1.49509e-06 
-0.310384 -0.433668 -3.11604 0.0025 0.683433 0.586944 2.14699 0.007316 85 4 1 1.48443e-06 
-0.306743 -0.423216 -3.1714 0.0025 0.689945 0.594785 2.15515 0.00724695 86 4 1 1.4234e-06 
-0.303137 -0.412809 -3.18225 0.0025 0.696508 0.60272 2.16333 0.00717867 87 4 1 1.41065e-06 
-0.299565 -0.402407 -3.23058 0.0025 0.703109 0.610731 2.1715 0.00711127 88 4 1 1.3897e-06 
-0.296026 -0.392016 -3.23807 0.0025 0.709741 0.618809 2.17967 0.00704483 89 4 1 1.34204e-06 
-0.29252 -0.381756 -3.25375 0.0025 0.716375 0.626921 2.1878 0.00697959 90 4 1 1.3308e-06 
-0.289046 -0.371523 -3.27095 0.0025 0.723015 0.63507 2.19589 0.00691548 91 4 1 1.27449e-06 
-0.285604 -0.361396 -3.25674 0.0025 0.729638 0.643228 2.20391 0.00685271 92 4 1 1.25392e-06 
-0.282193 -0.351397 -3.27507 0.0025 0.736242 0.651394 2.21186 0.00679124 93 4 1 1.23092e-06 
-0.278813 -0.341442 -3.26497 0.0025 0.742832 0.65957 2.21976 0.006731 94 4 1 1.20483e-06 
-0.275462 -0.331637 -3.2778 0.0025 0.749403 0.667754 2.22759 0.00667198 95 4 1 1.21711e-06 
-0.272141 -0.321847 -3.30047 0.0025 0.755979 0.675969 2.23539 0.00661394 96 4 1 1.15283e-06 
-0.268848 -0.312183 -3.26988 0.0025 0.76253 0.684184 2.24312 0.00655712 97 4 1 1.14835e-06 
-0.265583 -0.302629 -3.30575 0.0025 0.769064 0.692407 2.25079 0.00650141 98 4 1 1.14542e-06 
-0.262346 -0.293097 -3.2987 0.0025 0.775597 0.700653 2.25842 0.00644665 99 4 1 1.07102e-06 
-0.259137 -0.283742 -3.27488 0.0025 0.78209 0.708879 2.26596 0.00639313 100 4 1 1.09733e-06 
-0.255953 -0.274458 -3.31543 0.0025 0.788575 0.717124 2.27345 0.00634055 101 4 1 1.11419e-06 
-0.252796 -0.265135 -3.33012 0.0025 0.795078 0.725414 2.28094 0.00628869 102 4 1 1.00801e-06 
-0.249664 -0.255992 -3.27381 0.0025 0.801537 0.733677 2.28833 0.00623802 103 4 1 1.03604e-06 
-0.246558 -0.246957 -3.33537 0.0025 0.807979 0.741949 2.29567 0.00618828 104 4 1 1.07129e-06 
-0.243476 -0.237856 -3.34351 0.0025 0.814448 0.750274 2.303 0.00613912 105 4 1 9.45356e-07 
-0.240419 -0.22895 -3.28008 0.0025 0.820862 0.758559 2.31024 0.00609116 106 4 1 9.40666e-07 
-0.237385 -0.220199 -3.30343 0.0025 0.827231 0.766816 2.31739 0.00604426 107 4 1 1.05717e-06 
-0.234374 -0.211338 -3.3916 0.0025 0.833656 0.775164 2.32457 0.00599768 108 4 1 9.39797e-07 
-0.231387 -0.202575 -3.29683 0.0025 0.84006 0.783509 2.3317 0.00595196 109 4 1 8.62208e-07 
-0.228422 -0.194055 -3.30383 0.0025 0.846391 0.791793 2.33871 0.00590744 110 4 1 9.90733e-07 
-0.225479 -0.185441 -3.38674 0.0025 0.852762 0.800151 2.34574 0.0058633 111 4 1 9.61448e-07 
-0.222559 -0.176836 -3.37373 0.0025 0.859159 0.80856 2.35276 0.00581964 112 4 1 7.73861e-07 
-0.21966 -0.168464 -3.25035 0.0025 0.865449 0.81686 2.35963 0.00577735 113 4 1 8.19748e-07 
-0.216781 -0.160289 -3.31663 0.0025 0.871685 0.825121 2.36642 0.00573602 114 4 1 1.02998e-06 
-0.213924 -0.151859 -3.46216 0.0025 0.87804 0.833549 2.37331 0.0056945 115 4 1 8.36601e-07 
-0.211087 -0.143492 -3.30565 0.0025 0.884372 0.841968 2.38014 0.00565373 116 4 1 6.44139e-07 
-0.20827 -0.135569 -3.22575 0.0025 0.890538 0.850209 2.38676 0.00561458 117 4 1 9.35222e-07 
-0.205472 -0.127525 -3.45129 0.0025 0.896782 0.858571 2.39344 0.00557549 118 4 1 1.01188e-06 
-0.202694 -0.119147 -3.48177 0.0025 0.90317 0.86713 2.40025 0.00553606 119 4 1 5.83017e-07 
-0.199936 -0.111229 -3.18358 0.0025 0.909367 0.875468 2.40682 0.00549833 120 4 1 5.73646e-07 
-0.197196 -0.103741 -3.22669 0.0025 0.915381 0.883602 2.41317 0.00546221 121 4 1 1.01583e-06 
-0.194474 -0.0958322 -3.51984 0.0025 0.92159 0.892003 2.41971 0.0054254 122 4 1 8.86632e-07 
-0.19177 -0.0877337 -3.40153 0.0025 0.927897 0.900543 2.42632 0.00538853 123 4 1 4.61782e-07 
-0.189085 -0.0802362 -3.14772 0.0025 0.933952 0.908787 2.43263 0.00535359 124 4 1 6.6262e-07 
-0.186417 -0.0728731 -3.32176 0.0025 0.939936 0.916963 2.43885 0.00531951 125 4 1 9.7717e-07 
-0.183766 -0.0650996 -3.5058 0.0025 0.946126 0.925418 2.44527 0.00528471 126 4 1 6.57228e-07 
-0.181132 -0.0574368 -3.26454 0.0025 0.952268 0.933829 2.45161 0.00525062 127 4 1 4.73401e-07 
-0.178515 -0.0502834 -3.21632 0.0025 0.958204 0.942001 2.4577 0.0052181 128 4 1 7.86561e-07 
-0.175914 -0.0429232 -3.43815 0.0025 0.964196 0.950256 2.46385 0.00518567 129 4 1 5.54695e-07 
-0.173329 -0.0355892 -3.13112 0.0025 0.970091 0.958376 2.46987 0.00515416 130 4 1 2.10881e-08 
-0.17076 -0.0292956 -2.65481 0.0025 0.975506 0.965898 2.47534 0.00512554 131 4 1 9.33749e-07 
-0.168204 -0.022766 -3.57204 0.0025 0.981207 0.973857 2.48112 0.00509576 132 4 1 1.90354e-06 
-0.165664 -0.0141063 -4.37227 0.0025 0.987906 0.983114 2.48795 0.00506121 133 4 1 -2.88406e-07 
-0.163142 -0.00646912 -2.43599 0.0025 0.993788 0.99123 2.49386 0.00503125 134 4 1 -1.965e-06 
-0.160632 -0.00319183 -0.930241 0.0025 0.997478 0.996492 2.49745 0.00501264 135 4 1 1.28257e-06 
-0.15813 0.00127812 -3.6817 0.0025 1.00191 1.00282 2.50189 0.00499045 136 4 1 3.53368e-06 
-0.155642 0.0111396 -5.25447 0.0025 1.00896 1.01255 2.50905 0.00495562 137 4 1 -1.12467e-06 
-0.153174 0.0185228 -1.57448 0.0025 1.01455 1.02028 2.51461 0.00492829 138 4 1 -3.62928e-06 
-0.150714 0.0191738 0.541537 0.0025 1.01629 1.02289 2.5162 0.00491984 139 4 1 5.84827e-07 
-0.148254 0.0207269 -2.36007 0.0025 1.01819 1.02564 2.5181 0.00491066 140 4 1 1.64089e-06 
-0.145803 0.0261229 -2.15843 0.0025 1.02155 1.03024 2.5215 0.00489454 141 4 1 -1.80241e-06 
-0.14336 0.0277785 0.0164771 0.0025 1.02308 1.03237 2.52299 0.00488721 142 3 1 -1.89448e-06 
-0.140916 0.0268509 0.676284 0.0025 1.02234 1.0314 2.52224 0.00489073 143 4 1 -6.93269e-07 
-0.138469 0.0249681 1.01509 0.0025 1.0207 1.0291 2.52061 0.00489858 144 4 1 -2.74732e-07 
-0.136017 0.022614 1.19242 0.0025 1.01867 1.02624 2.51859 0.00490836 145 4 1 -6.70747e-08 
-0.13356 0.0200338 1.27131 0.0025 1.01647 1.02314 2.51641 0.004919 146 4 1 5.73061e-08 
-0.131098 0.0173867 1.28213 0.0025 1.01423 1.01999 2.51418 0.00492985 147 4 1 1.39286e-07 
-0.128631 0.0147873 1.24239 0.0025 1.01205 1.01692 2.51202 0.00494047 148 4 1 1.92655e-07 
-0.126158 0.0123211 1.1654 0.0025 1.01 1.01404 2.50997 0.00495051 149 4 1 2.25041e-07 
-0.12368 0.0100513 1.06126 0.0025 1.00812 1.0114 2.5081 0.00495972 150 4 1 2.40691e-07 
-0.121198 0.00802205 0.939036 0.0025 1.00646 1.00906 2.50644 0.00496792 151 4 1 2.42458e-07 
-0.118712 0.00625932 0.807303 0.0025 1.00502 1.00705 2.50501 0.00497502 152 4 1 2.32739e-07 
-0.116223 0.00477196 0.674172 0.0025 1.00381 1.00535 2.50381 0.004981 153 4 1 2.14092e-07 
-0.113731 0.00355312 0.54678 0.0025 1.00283 1.00398 2.50283 0.00498588 154 4 1 1.89339e-07 
-0.111237 0.0025831 0.430706 0.0025 1.00205 1.00288 2.50205 0.00498975 155 4 1 1.61358e-07 
-0.108741 0.00183319 0.329595 0.0025 1.00145 1.00204 2.50145 0.00499274 156 4 1 1.32763e-07 
-0.106244 0.00126984 0.245116 0.0025 1.00101 1.00141 2.501 0.00499498 157 4 1 1.05631e-07 
-0.103746 0.000858434 0.177229 0.0025 1.00068 1.00095 2.50068 0.00499661 158 4 1 8.13809e-08 
-0.101248 0.000566234 0.124633 0.0025 1.00045 1.00063 2.50045 0.00499777 159 4 1 6.07788e-08 
-0.0987486 0.000364328 0.0852689 0.0025 1.00029 1.0004 2.50029 0.00499856 160 4 1 4.40403e-08 
-0.0962492 0.000228569 0.0567624 0.0025 1.00018 1.00025 2.50018 0.0049991 161 4 1 3.09803e-08 
-0.0937495 0.000139741 0.0367641 0.0025 1.00011 1.00015 2.50011 0.00499945 162 4 1 2.11653e-08 
-0.0912497 8.31898e-05 0.0231614 0.0025 1.00007 1.00009 2.50007 0.00499967 163 4 1 1.40453e-08 
-0.0887499 4.81748e-05 0.0141861 0.0025 1.00004 1.00005 2.50004 0.00499981 164 4 1 9.05248e-09 
-0.0862499 2.71023e-05 0.00844067 0.0025 1.00002 1.00003 2.50002 0.00499989 165 4 1 5.66485e-09 
-0.08375 1.47879e-05 0.00487337 0.0025 1.00001 1.00002 2.50001 0.00499994 166 4 1 3.43972e-09 
-0.08125 7.80898e-06 0.00272627 0.0025 1.00001 1.00001 2.50001 0.00499997 167 4 1 2.02472e-09 
-0.07875 3.97997e-06 0.00147482 0.0025 1 1 2.5 0.00499998 168 4 1 1.15382e-09 
-0.07625 1.95075e-06 0.000769488 0.0025 1 1 2.5 0.00499999 169 4 1 6.35418e-10 
-0.07375 9.15112e-07 0.000385875 0.0025 1 1 2.5 0.005 170 4 1 3.37355e-10 
-0.07125 4.08138e-07 0.000185104 0.0025 1 1 2.5 0.005 171 4 1 1.72111e-10 
-0.06875 1.71408e-07 8.43749e-05 0.0025 1 1 2.5 0.005 172 4 1 8.40033e-11 
-0.06625 6.67976e-08 3.61894e-05 0.0025 1 1 2.5 0.005 173 4 1 3.89789e-11 
-0.06375 2.35701e-08 1.43811e-05 0.0025 1 1 2.5 0.005 174 4 1 1.70384e-11 
-0.06125 7.18948e-09 5.15213e-06 0.0025 1 1 2.5 0.005 175 4 1 6.91576e-12 
-0.05875 1.69931e-09 1.57934e-06 0.0025 1 1 2.5 0.005 176 4 1 2.53422e-12 
-0.05625 1.9954e-10 3.51148e-07 0.0025 1 1 2.5 0.005 177 4 1 8.22951e-13 
-0.05375 -4.27896e-11 -1.94045e-08 0.0025 1 1 2.5 0.005 178 5 1 1.94157e-13 
-0.05125 4.9924e-11 -4.00571e-08 0.0025 1 1 2.5 0.005 179 4 1 -2.00703e-14 
-0.04875 6.77272e-11 3.56715e-09 0.0025 1 1 2.5 0.005 180 3 1 -2.25679e-14 
-0.04625 4.93583e-11 1.12941e-08 0.0025 1 1 2.5 0.005 181 4 1 -1.15357e-15 
-0.04375 2.8627e-11 9.5381e-09 0.0025 1 1 2.5 0.005 182 4 1 4.04086e-15 
-0.04125 1.42413e-11 5.92297e-09 0.0025 1 1 2.5 0.005 183 4 1 3.96589e-15 
-0.03875 6.18489e-12 3.07364e-09 0.0025 1 1 2.5 0.005 184 4 1 2.61409e-15 
-0.03625 2.3223e-12 1.3747e-09 0.0025 1 1 2.5 0.005 185 4 1 1.39622e-15 
-0.03375 7.2059e-13 5.26143e-10 0.0025 1 1 2.5 0.005 186 4 1 6.46239e-16 
-0.03125 1.60902e-13 1.63595e-10 0.0025 1 1 2.5 0.005 187 4 1 2.94165e-16 
-0.02875 8.49122e-15 3.90514e-11 0.0025 1 1 2.5 0.005 188 4 1 4.90274e-17 
-0.02625 -1.21949e-14 -8.69704e-12 0.0025 1 1 2.5 0.005 189 5 1 2.52243e-17 
-0.02375 6.80287e-15 -3.9222e-12 0.0025 1 1 2.5 0.005 190 4 1 -3.19744e-18 
-0.02125 7.16029e-15 1.02318e-12 0.0025 1 1 2.5 0.005 191 3 1 -2.4869e-18 
-0.01875 5.16541e-15 1.76215e-12 0.0025 1 1 2.5 0.005 192 4 1 3.19744e-18 
-0.01625 3.65917e-15 -3.41061e-13 0.0025 1 1 2.5 0.005 193 4 1 -3.55271e-18 
-0.01375 1.06647e-15 1.36424e-12 0.0025 1 1 2.5 0.005 194 4 1 3.90799e-18 
-0.01125 7.51478e-16 1.13687e-13 0.0025 1 1 2.5 0.005 195 5 1 -1.42109e-18 
-0.00875 1.18053e-15 -8.52651e-13 0.0025 1 1 2.5 0.005 196 4 1 6.24001e-33 
-0.00625 1.36872e-15 5.68434e-14 0.0025 1 1 2.5 0.005 197 3 1 -3.55271e-19 
-0.00375 4.76297e-16 -5.68434e-14 0.0025 1 1 2.5 0.005 198 5 1 -7.10543e-19 
-0.00125 7.83204e-16 1.7053e-13 0.0025 1 1 2.5 0.005 199 4 1 -1.42109e-18 
0.00125 6.71494e-16 -3.97904e-13 0.0025 1 1 2.5 0.005 200 3 1 -1.06581e-18 
0.00375 8.70059e-16 3.41061e-13 0.0025 1 1 2.5 0.005 201 4 1 -1.06581e-18 
0.00625 1.3965e-15 -3.41061e-13 0.0025 1 1 2.5 0.005 202 3 1 0 
0.00875 1.34954e-15 2.27374e-13 0.0025 1 1 2.5 0.005 203 3 1 0 
0.01125 7.45439e-16 1.13687e-13 0.0025 1 1 2.5 0.005 204 4 1 2.4869e-18 
0.01375 1.77847e-15 -2.84217e-13 0.0025 1 1 2.5 0.005 205 5 1 -6.39488e-18 
0.01625 1.51416e-15 -1.7053e-13 0.0025 1 1 2.5 0.005 206 4 1 -3.55271e-19 
0.01875 2.30533e-15 1.13687e-13 0.0025 1 1 2.5 0.005 207 4 1 1.2326e-31 
0.02125 -1.66294e-15 -1.25056e-12 0.0025 1 1 2.5 0.005 208 3 1 -1.06581e-18 
0.02375 1.37453e-15 2.95586e-12 0.0025 1 1 2.5 0.005 209 4 1 1.03029e-17 
0.02625 1.15281e-14 8.46967e-12 0.0025 1 1 2.5 0.005 210 5 1 -7.10543e-18 
0.02875 -3.39309e-15 -3.43903e-11 0.0025 1 1 2.5 0.005 211 4 1 9.5568e-17 
0.03125 -1.54914e-13 -1.65869e-10 0.0025 1 1 2.5 0.005 212 4 1 2.76046e-16 
0.03375 -7.17886e-13 -5.25688e-10 0.0025 1 1 2.5 0.005 213 4 1 6.3558e-16 
0.03625 -2.32119e-12 -1.37589e-09 0.0025 1 1 2.5 0.005 214 4 1 1.39764e-15 
0.03875 -6.17565e-12 -3.07273e-09 0.0025 1 1 2.5 0.005 215 4 1 2.62652e-15 
0.04125 -1.423e-11 -5.92121e-09 0.0025 1 1 2.5 0.005 216 4 1 3.96305e-15 
0.04375 -2.86204e-11 -9.53906e-09 0.0025 1 1 2.5 0.005 217 4 1 4.0334e-15 
0.04625 -4.93525e-11 -1.12931e-08 0.0025 1 1 2.5 0.005 218 4 1 -1.14078e-15 
0.04875 -6.77178e-11 -3.56721e-09 0.0025 1 1 2.5 0.005 219 3 1 -2.25672e-14 
0.05125 -4.99137e-11 4.00545e-08 0.0025 1 1 2.5 0.005 220 4 1 -2.00725e-14 
0.05375 4.27919e-11 1.94024e-08 0.0025 1 1 2.5 0.005 221 5 1 1.94155e-13 
0.05625 -1.9954e-10 -3.51147e-07 0.0025 1 1 2.5 0.005 222 4 1 8.22967e-13 
0.05875 -1.6993e-09 -1.57934e-06 0.0025 1 1 2.5 0.005 223 4 1 2.53415e-12 
