# Time [s]: 0.28569
# Columns: pos [m], vel [m/s], acc [m/s^2], mass [kg], dens [kg/m^3], pres [Pa], ene [J/kg], sml [m], id, neighbor, alpha, gradh, ...additional?
1.30993 -0.673109 0.000492901 0.0025 0.511045 0.43272 2.15249 0.00978388 0 4 1 -0.000134226 
1.31471 -0.673112 0.00056433 0.0025 0.536901 0.426182 1.95003 0.00931271 1 4 1 0.000179251 
1.31925 -0.673114 0.000626654 0.0025 0.54823 0.43085 1.96849 0.00912026 2 3 1 -1.90587e-05 
1.32383 -0.673116 0.000680723 0.0025 0.545964 0.429185 1.96463 0.00915812 3 5 1 3.4858e-06 
1.32841 -0.673119 0.000726305 0.0025 0.546361 0.429338 1.96457 0.00915147 4 4 1 -1.38796e-07 
1.33298 -0.673122 0.000768822 0.0025 0.54637 0.429307 1.96433 0.00915131 5 4 1 1.43611e-07 
1.33756 -0.673125 0.000815395 0.0025 0.546392 0.429304 1.96427 0.00915095 6 4 1 -3.6393e-09 
1.34213 -0.673128 0.000869772 0.0025 0.546403 0.4293 1.96421 0.00915075 7 4 1 8.08878e-09 
1.34671 -0.673131 0.000929452 0.0025 0.546416 0.429297 1.96415 0.00915054 8 4 1 4.60749e-09 
1.35128 -0.673135 0.000988487 0.0025 0.546426 0.429295 1.9641 0.00915037 9 4 1 5.31987e-09 
1.35586 -0.673139 0.00104419 0.0025 0.546435 0.429292 1.96406 0.00915021 10 4 1 -2.3921e-09 
1.36043 -0.673143 0.00110146 0.0025 0.546444 0.429289 1.96401 0.00915006 11 4 1 4.56736e-09 
1.36501 -0.673148 0.00116977 0.0025 0.546452 0.429286 1.96397 0.00914993 12 4 1 2.66147e-09 
1.36958 -0.673153 0.00125464 0.0025 0.546459 0.429283 1.96393 0.00914982 13 4 1 3.34419e-09 
1.37416 -0.673159 0.0013521 0.0025 0.546464 0.42928 1.9639 0.00914974 14 4 1 1.86397e-09 
1.37873 -0.673165 0.00145219 0.0025 0.546468 0.429276 1.96387 0.00914966 15 4 1 -1.84522e-09 
1.38331 -0.673171 0.00154924 0.0025 0.546472 0.429272 1.96383 0.00914959 16 4 1 4.6409e-09 
1.38788 -0.673178 0.001649 0.0025 0.546475 0.429268 1.9638 0.00914955 17 4 1 1.20786e-09 
1.39246 -0.673186 0.00176526 0.0025 0.546477 0.429263 1.96378 0.00914951 18 4 1 -1.50941e-09 
1.39703 -0.673194 0.00190848 0.0025 0.546479 0.429259 1.96375 0.00914949 19 4 1 2.32174e-09 
1.40161 -0.673203 0.00207661 0.0025 0.546479 0.429253 1.96372 0.00914948 20 3 1 7.34984e-10 
1.40618 -0.673212 0.00225638 0.0025 0.546479 0.429248 1.9637 0.00914948 21 4 1 7.28041e-10 
1.41076 -0.673223 0.00243461 0.0025 0.546478 0.429242 1.96367 0.0091495 22 4 1 5.8896e-10 
1.41533 -0.673234 0.00261146 0.0025 0.546476 0.429235 1.96365 0.00914953 23 4 1 -6.51344e-10 
1.41991 -0.673246 0.00280552 0.0025 0.546474 0.429228 1.96362 0.00914957 24 4 1 9.42458e-10 
1.42448 -0.67326 0.00304436 0.0025 0.546471 0.42922 1.9636 0.00914962 25 4 1 8.65775e-11 
1.42906 -0.673274 0.00334337 0.0025 0.546466 0.429212 1.96358 0.00914969 26 4 1 -1.15357e-09 
1.43363 -0.67329 0.00368789 0.0025 0.546462 0.429203 1.96355 0.00914978 27 4 1 3.22663e-10 
1.43821 -0.673307 0.00403949 0.0025 0.546455 0.429193 1.96353 0.00914988 28 4 1 -6.8652e-11 
1.44278 -0.673326 0.00437249 0.0025 0.546448 0.429182 1.96351 0.00915 29 4 1 -1.70379e-09 
1.44736 -0.673346 0.00471301 0.0025 0.54644 0.42917 1.96348 0.00915013 30 4 1 -5.14378e-10 
1.45193 -0.673369 0.00513501 0.0025 0.546431 0.429157 1.96345 0.00915029 31 4 1 6.97502e-10 
1.45651 -0.673395 0.00570134 0.0025 0.54642 0.429142 1.96343 0.00915047 32 4 1 -2.50143e-09 
1.46108 -0.673422 0.00640324 0.0025 0.546408 0.429126 1.9634 0.00915067 33 4 1 -2.82248e-09 
1.46566 -0.673452 0.00716708 0.0025 0.546394 0.429109 1.96337 0.00915091 34 4 1 -8.16753e-11 
1.47023 -0.673485 0.0079288 0.0025 0.546378 0.429089 1.96333 0.00915118 35 4 1 -2.49546e-09 
1.47481 -0.673522 0.00870196 0.0025 0.54636 0.429067 1.9633 0.00915148 36 4 1 -3.30126e-09 
1.47938 -0.673564 0.00957785 0.0025 0.546339 0.429042 1.96326 0.00915182 37 4 1 -1.34219e-09 
1.48396 -0.673611 0.0106662 0.0025 0.546317 0.429015 1.96322 0.0091522 38 4 1 -3.26168e-09 
1.48854 -0.673664 0.0120252 0.0025 0.546291 0.428985 1.96317 0.00915264 39 4 1 -4.80292e-09 
1.49311 -0.673722 0.0136322 0.0025 0.546261 0.428951 1.96312 0.00915313 40 4 1 -4.03515e-09 
1.49769 -0.673788 0.0154208 0.0025 0.546228 0.428912 1.96307 0.00915369 41 4 1 -4.85127e-09 
-0.497734 -0.673861 0.0173557 0.0025 0.546189 0.428869 1.963 0.00915433 42 4 1 -6.39091e-09 
-0.493156 -0.673944 0.0194769 0.0025 0.546146 0.42882 1.96294 0.00915506 43 4 1 -6.30283e-09 
-0.488579 -0.674038 0.0218685 0.0025 0.546098 0.428765 1.96286 0.00915587 44 4 1 -5.95293e-09 
-0.484001 -0.674143 0.0245509 0.0025 0.546043 0.428703 1.96277 0.00915679 45 4 1 -7.81007e-09 
-0.479422 -0.67426 0.0274099 0.0025 0.545981 0.428634 1.96268 0.00915782 46 4 1 -8.2994e-09 
-0.474843 -0.674391 0.0303204 0.0025 0.545913 0.428558 1.96258 0.00915896 47 4 1 -6.67577e-09 
-0.470263 -0.674535 0.0332398 0.0025 0.545839 0.428475 1.96246 0.00916021 48 4 1 -6.19778e-09 
-0.465683 -0.674692 0.0359922 0.0025 0.545759 0.428386 1.96234 0.00916156 49 4 1 -5.48492e-09 
-0.461101 -0.674857 0.038245 0.0025 0.545674 0.428292 1.96222 0.00916298 50 4 1 -2.44091e-09 
-0.45652 -0.675028 0.0395546 0.0025 0.545587 0.428196 1.96209 0.00916443 51 4 1 3.08351e-09 
-0.451937 -0.675196 0.038567 0.0025 0.545502 0.428102 1.96196 0.00916587 52 4 1 9.98446e-09 
-0.447354 -0.675357 0.0339445 0.0025 0.545425 0.428016 1.96184 0.00916717 53 4 1 1.88219e-08 
-0.44277 -0.675507 0.0267609 0.0025 0.545363 0.427948 1.96175 0.0091682 54 4 1 2.74975e-08 
-0.438185 -0.675626 0.0190384 0.0025 0.545324 0.427904 1.96169 0.00916885 55 4 1 2.17968e-08 
-0.433601 -0.675683 0.0129837 0.0025 0.545303 0.427881 1.96166 0.00916921 56 5 1 4.26844e-08 
-0.429016 -0.67574 -0.00221431 0.0025 0.545319 0.427902 1.96167 0.00916894 57 4 1 1.68052e-07 
-0.424432 -0.675449 -0.114194 0.0025 0.545473 0.428072 1.96189 0.00916636 58 4 1 2.06421e-07 
-0.41985 -0.674869 -0.142342 0.0025 0.545794 0.428428 1.96235 0.00916096 59 4 1 3.10339e-07 
-0.415271 -0.673949 -0.291058 0.0025 0.546364 0.429069 1.96316 0.00915141 60 4 1 7.71162e-07 
-0.410698 -0.671886 -0.66593 0.0025 0.547512 0.430344 1.96481 0.00913221 61 4 1 1.20711e-06 
-0.406139 -0.668061 -1.0801 0.0025 0.549488 0.432516 1.96764 0.00909938 62 4 1 1.28268e-06 
-0.401599 -0.662738 -1.36281 0.0025 0.55222 0.435521 1.97154 0.00905436 63 4 1 1.21873e-06 
-0.397084 -0.656443 -1.57529 0.0025 0.555531 0.439179 1.97626 0.0090004 64 4 1 1.33419e-06 
-0.392599 -0.649223 -1.81853 0.0025 0.559373 0.443441 1.98172 0.00893857 65 4 1 1.63272e-06 
-0.388146 -0.640904 -2.11824 0.0025 0.563812 0.448376 1.98799 0.00886821 66 4 1 1.93185e-06 
-0.38373 -0.63143 -2.41652 0.0025 0.568884 0.454033 1.99512 0.00878914 67 4 1 2.14915e-06 
-0.379356 -0.62085 -2.69887 0.0025 0.574558 0.46038 2.00306 0.00870235 68 4 1 2.19012e-06 
-0.375028 -0.609459 -2.87928 0.0025 0.580704 0.467279 2.0116 0.00861024 69 4 1 2.04461e-06 
-0.370746 -0.597707 -2.96089 0.0025 0.587121 0.474516 2.02046 0.00851614 70 4 1 1.87323e-06 
-0.366511 -0.585873 -2.99079 0.0025 0.593647 0.481911 2.02941 0.00842251 71 4 1 1.70769e-06 
-0.362323 -0.57419 -2.97525 0.0025 0.600173 0.48934 2.03831 0.00833093 72 4 1 1.56015e-06 
-0.35818 -0.562702 -2.94351 0.0025 0.606629 0.496721 2.04704 0.00824228 73 4 1 1.42452e-06 
-0.354081 -0.551568 -2.88728 0.0025 0.61297 0.504003 2.05557 0.00815701 74 4 1 1.32217e-06 
-0.350023 -0.540732 -2.84131 0.0025 0.619181 0.511167 2.06388 0.00807519 75 4 1 1.26046e-06 
-0.346005 -0.530205 -2.80033 0.0025 0.625272 0.51822 2.07197 0.00799651 76 4 1 1.1804e-06 
-0.342026 -0.519967 -2.74513 0.0025 0.631242 0.525159 2.07986 0.0079209 77 4 1 1.14027e-06 
-0.338084 -0.510015 -2.71828 0.0025 0.637106 0.532003 2.08756 0.00784799 78 4 1 1.14012e-06 
-0.334178 -0.500217 -2.70177 0.0025 0.642903 0.538794 2.09514 0.00777722 79 4 1 1.15169e-06 
-0.330307 -0.490564 -2.70457 0.0025 0.648669 0.545573 2.10263 0.00770809 80 4 1 1.20436e-06 
-0.32647 -0.480939 -2.73797 0.0025 0.654456 0.552401 2.11011 0.00763993 81 4 1 1.30827e-06 
-0.322667 -0.471233 -2.81862 0.0025 0.660334 0.559361 2.11767 0.00757193 82 4 1 1.37373e-06 
-0.318898 -0.461381 -2.88332 0.0025 0.666335 0.566491 2.12535 0.00750373 83 4 1 1.40965e-06 
-0.315163 -0.451396 -2.96109 0.0025 0.672463 0.573798 2.13314 0.00743535 84 4 1 1.44865e-06 
-0.311462 -0.441241 -3.03365 0.0025 0.678722 0.581288 2.14106 0.00736678 85 4 1 1.47979e-06 
-0.307796 -0.430968 -3.1149 0.0025 0.685109 0.588959 2.1491 0.0072981 86 4 1 1.44592e-06 
-0.304164 -0.420595 -3.1427 0.0025 0.691585 0.596764 2.1572 0.00722977 87 4 1 1.38675e-06 
-0.300566 -0.410288 -3.16682 0.0025 0.6981 0.604648 2.1653 0.0071623 88 4 1 1.39867e-06 
-0.297001 -0.39997 -3.21509 0.0025 0.70466 0.612617 2.17342 0.00709562 89 4 1 1.34902e-06 
-0.29347 -0.38971 -3.20723 0.0025 0.711239 0.620637 2.18151 0.00702999 90 4 1 1.30811e-06 
-0.289971 -0.379536 -3.23015 0.0025 0.717813 0.628684 2.18955 0.0069656 91 4 1 1.30568e-06 
-0.286504 -0.369403 -3.24373 0.0025 0.724396 0.636768 2.19756 0.0069023 92 4 1 1.23897e-06 
-0.283069 -0.3594 -3.22409 0.0025 0.730955 0.644854 2.2055 0.00684037 93 4 1 1.23327e-06 
-0.279664 -0.349475 -3.25275 0.0025 0.737499 0.652951 2.21337 0.00677967 94 4 1 1.20511e-06 
-0.276289 -0.339649 -3.2327 0.0025 0.744029 0.661058 2.22119 0.00672017 95 4 1 1.18366e-06 
-0.272943 -0.329934 -3.25685 0.0025 0.750542 0.669175 2.22895 0.00666185 96 4 1 1.19412e-06 
-0.269627 -0.320233 -3.26905 0.0025 0.757061 0.677324 2.23667 0.00660448 97 4 1 1.12639e-06 
-0.266339 -0.310693 -3.24381 0.0025 0.763553 0.685469 2.24432 0.00654834 98 4 1 1.13439e-06 
-0.263078 -0.301217 -3.28347 0.0025 0.770033 0.693629 2.25192 0.00649323 99 4 1 1.11798e-06 
-0.259845 -0.291792 -3.26638 0.0025 0.776509 0.701806 2.25948 0.00643908 100 4 1 1.03879e-06 
-0.256639 -0.282524 -3.24066 0.0025 0.782936 0.709954 2.26694 0.00638622 101 4 1 1.08665e-06 
-0.253459 -0.273316 -3.29507 0.0025 0.789364 0.718129 2.27436 0.00633421 102 4 1 1.09659e-06 
-0.250305 -0.26408 -3.29959 0.0025 0.795814 0.726353 2.28178 0.00628288 103 4 1 9.82045e-07 
-0.247176 -0.255048 -3.24457 0.0025 0.802213 0.734544 2.2891 0.00623276 104 4 1 1.02281e-06 
-0.244072 -0.246077 -3.31126 0.0025 0.808601 0.742747 2.29637 0.00618352 105 4 1 1.0509e-06 
-0.240993 -0.23707 -3.3126 0.0025 0.815014 0.751003 2.30364 0.00613486 106 4 1 9.20452e-07 
-0.237937 -0.228238 -3.24863 0.0025 0.821368 0.759213 2.31081 0.00608741 107 4 1 9.32563e-07 
-0.234905 -0.219586 -3.28289 0.0025 0.827684 0.767404 2.3179 0.00604095 108 4 1 1.03941e-06 
-0.231896 -0.210788 -3.35918 0.0025 0.834055 0.775683 2.32502 0.00599481 109 4 1 9.16229e-07 
-0.22891 -0.202114 -3.26799 0.0025 0.840401 0.783955 2.33208 0.00594954 110 4 1 8.54451e-07 
-0.225946 -0.193663 -3.28174 0.0025 0.84668 0.792173 2.33903 0.00590542 111 4 1 9.65958e-07 
-0.223005 -0.185148 -3.34809 0.0025 0.852994 0.800455 2.34599 0.0058617 112 4 1 9.46831e-07 
-0.220085 -0.176593 -3.35204 0.0025 0.859335 0.808791 2.35295 0.00581845 113 4 1 7.68792e-07 
-0.217186 -0.168288 -3.22503 0.0025 0.865576 0.817027 2.35977 0.0057765 114 4 1 7.89402e-07 
-0.214308 -0.160198 -3.27586 0.0025 0.871752 0.825209 2.36649 0.00573558 115 4 1 1.01129e-06 
-0.21145 -0.151847 -3.43283 0.0025 0.878044 0.833556 2.37331 0.00569447 116 4 1 8.5096e-07 
-0.208614 -0.143534 -3.29873 0.0025 0.884337 0.841921 2.3801 0.00565396 117 4 1 6.23666e-07 
-0.205796 -0.13566 -3.18718 0.0025 0.890457 0.850099 2.38667 0.00561509 118 4 1 8.88836e-07 
-0.202998 -0.127739 -3.40329 0.0025 0.89663 0.858367 2.39327 0.00557644 119 4 1 1.02114e-06 
-0.20022 -0.119439 -3.47167 0.0025 0.902965 0.866856 2.40003 0.00553731 120 4 1 6.08698e-07 
-0.197461 -0.111509 -3.18296 0.0025 0.90914 0.87516 2.40658 0.0054997 121 4 1 5.20735e-07 
-0.19472 -0.104084 -3.16431 0.0025 0.915098 0.883217 2.41287 0.0054639 122 4 1 9.61411e-07 
-0.191997 -0.0963239 -3.4662 0.0025 0.921217 0.891499 2.41931 0.0054276 123 4 1 9.29432e-07 
-0.189292 -0.0882572 -3.41237 0.0025 0.927481 0.899979 2.42589 0.00539095 124 4 1 4.88651e-07 
-0.186606 -0.0807349 -3.143 0.0025 0.933525 0.908202 2.43219 0.00535604 125 4 1 5.81135e-07 
-0.183936 -0.0734843 -3.2376 0.0025 0.939439 0.916283 2.43834 0.00532233 126 4 1 9.54052e-07 
-0.181284 -0.0658323 -3.48483 0.0025 0.945548 0.92463 2.44467 0.00528794 127 4 1 7.27668e-07 
-0.178648 -0.0581689 -3.28907 0.0025 0.951677 0.933018 2.451 0.00525388 128 4 1 4.29405e-07 
-0.17603 -0.0510416 -3.14823 0.0025 0.957576 0.941133 2.45706 0.00522152 129 4 1 7.20602e-07 
-0.173427 -0.0438415 -3.38165 0.0025 0.963485 0.94928 2.46312 0.00518949 130 4 1 6.98502e-07 
-0.17084 -0.0364224 -3.26126 0.0025 0.969414 0.957442 2.46918 0.00515776 131 4 1 3.65725e-08 
-0.168269 -0.0299464 -2.63382 0.0025 0.974871 0.965004 2.47471 0.00512888 132 4 1 5.24305e-07 
-0.165711 -0.0238455 -3.1699 0.0025 0.980294 0.972583 2.48018 0.00510051 133 4 1 1.9124e-06 
-0.163168 -0.0157258 -4.3861 0.0025 0.98676 0.981547 2.48677 0.00506709 134 4 1 5.32205e-07 
-0.160644 -0.00730295 -3.12748 0.0025 0.993087 0.990259 2.49317 0.00503481 135 4 1 -2.04316e-06 
-0.158134 -0.00316837 -0.855611 0.0025 0.997148 0.995984 2.49715 0.0050143 136 4 1 8.55963e-08 
-0.15563 3.40159e-05 -2.67097 0.0025 1.00089 1.00138 2.50085 0.00499553 137 4 1 3.64558e-06 
-0.153138 0.00875672 -5.37177 0.0025 1.00738 1.01041 2.50745 0.00496335 138 4 1 3.88253e-07 
-0.150666 0.0177031 -2.72447 0.0025 1.0138 1.01922 2.51388 0.00493195 139 4 1 -3.74295e-06 
-0.148206 0.0196743 0.559192 0.0025 1.01631 1.02285 2.51624 0.00491977 140 4 1 -6.53046e-07 
-0.145747 0.0200042 -1.49246 0.0025 1.01771 1.02496 2.5176 0.00491301 141 4 1 1.91484e-06 
-0.143293 0.0249425 -2.54889 0.0025 1.02077 1.02918 2.52072 0.00489825 142 4 1 -1.05297e-06 
-0.140848 0.0275221 -0.278166 0.0025 1.02281 1.03199 2.52274 0.00488849 143 3 1 -2.09146e-06 
-0.138405 0.0269548 0.547682 0.0025 1.02245 1.03153 2.52235 0.00489022 144 4 1 -8.47581e-07 
-0.135958 0.0252731 0.933045 0.0025 1.02098 1.02949 2.52088 0.00489726 145 4 1 -3.48387e-07 
-0.133507 0.0230365 1.14556 0.0025 1.01904 1.02676 2.51896 0.00490658 146 4 1 -1.10451e-07 
-0.131051 0.0205207 1.24676 0.0025 1.01689 1.02373 2.51682 0.00491698 147 4 1 2.78897e-08 
-0.12859 0.0179009 1.27395 0.0025 1.01466 1.0206 2.51462 0.00492774 148 4 1 1.19404e-07 
-0.126124 0.0153017 1.24608 0.0025 1.01248 1.01753 2.51245 0.00493836 149 4 1 1.79751e-07 
-0.123652 0.0128162 1.1775 0.0025 1.01041 1.01462 2.51038 0.00494849 150 4 1 2.17028e-07 
-0.121175 0.010513 1.07941 0.0025 1.0085 1.01194 2.50849 0.00495784 151 4 1 2.3626e-07 
-0.118694 0.00844027 0.961361 0.0025 1.0068 1.00955 2.50679 0.00496622 152 4 1 2.40819e-07 
-0.116209 0.00662762 0.832162 0.0025 1.00532 1.00747 2.50531 0.00497353 153 4 1 2.334e-07 
-0.113721 0.00508719 0.700001 0.0025 1.00407 1.00571 2.50406 0.00497973 154 4 1 2.16632e-07 
-0.111229 0.00381524 0.572135 0.0025 1.00304 1.00427 2.50304 0.00498483 155 4 1 1.93301e-07 
-0.108736 0.00279479 0.454372 0.0025 1.00222 1.00312 2.50222 0.00498891 156 4 1 1.66239e-07 
-0.10624 0.00199925 0.350684 0.0025 1.00159 1.00223 2.50158 0.00499208 157 4 1 1.38056e-07 
-0.103744 0.00139639 0.263117 0.0025 1.00111 1.00155 2.5011 0.00499448 158 4 1 1.10891e-07 
-0.101246 0.000952148 0.191988 0.0025 1.00075 1.00106 2.50075 0.00499624 159 4 1 8.62657e-08 
-0.0987474 0.000633694 0.136284 0.0025 1.0005 1.0007 2.5005 0.0049975 160 4 1 6.50655e-08 
-0.0962484 0.000411549 0.094142 0.0025 1.00032 1.00046 2.50032 0.00499838 161 4 1 4.76223e-08 
-0.093749 0.000260717 0.0632939 0.0025 1.00021 1.00029 2.5002 0.00499897 162 4 1 3.38447e-08 
-0.0912494 0.000161027 0.0414168 0.0025 1.00013 1.00018 2.50013 0.00499937 163 4 1 2.33653e-08 
-0.0887497 9.68962e-05 0.0263718 0.0025 1.00008 1.00011 2.50008 0.00499962 164 4 1 1.56726e-08 
-0.0862498 5.67546e-05 0.0163331 0.0025 1.00004 1.00006 2.50004 0.00499978 165 4 1 1.02139e-08 
-0.0837499 3.232e-05 0.00983267 0.0025 1.00003 1.00004 2.50003 0.00499987 166 4 1 6.46563e-09 
-0.0812499 1.78678e-05 0.00574814 0.0025 1.00001 1.00002 2.50001 0.00499993 167 4 1 3.97353e-09 
-0.07875 9.57133e-06 0.00325886 0.0025 1.00001 1.00001 2.50001 0.00499996 168 4 1 2.36886e-09 
-0.07625 4.95585e-06 0.00178866 0.0025 1 1.00001 2.5 0.00499998 169 4 1 1.36836e-09 
-0.07375 2.4725e-06 0.000948228 0.0025 1 1 2.5 0.00499999 170 4 1 7.64677e-10 
-0.07125 1.18362e-06 0.000484064 0.0025 1 1 2.5 0.005 171 4 1 4.1253e-10 
-0.06875 5.40598e-07 0.000236984 0.0025 1 1 2.5 0.005 172 4 1 2.14243e-10 
-0.06625 2.33689e-07 0.000110639 0.0025 1 1 2.5 0.005 173 4 1 1.06701e-10 
-0.06375 9.44762e-08 4.88591e-05 0.0025 1 1 2.5 0.005 174 4 1 5.0692e-11 
-0.06125 3.50476e-08 2.01575e-05 0.0025 1 1 2.5 0.005 175 4 1 2.27991e-11 
-0.05875 1.15347e-08 7.6129e-06 0.0025 1 1 2.5 0.005 176 4 1 9.59393e-12 
-0.05625 3.13949e-09 2.53136e-06 0.0025 1 1 2.5 0.005 177 4 1 3.70592e-12 
-0.05375 5.75687e-10 6.75692e-07 0.0025 1 1 2.5 0.005 178 4 1 1.27342e-12 
-0.05125 -8.3941e-12 1.0241e-07 0.0025 1 1 2.5 0.005 179 4 1 3.68206e-13 
-0.04875 6.56251e-12 -6.38354e-08 0.0025 1 1 2.5 0.005 180 5 1 4.47525e-14 
-0.04625 6.1473e-11 -7.88953e-09 0.0025 1 1 2.5 0.005 181 3 1 -3.29976e-14 
-0.04375 5.35557e-11 8.67357e-09 0.0025 1 1 2.5 0.005 182 4 1 -7.01874e-15 
-0.04125 3.40683e-11 9.77639e-09 0.0025 1 1 2.5 0.005 183 4 1 2.27551e-15 
-0.03875 1.81619e-11 6.861e-09 0.0025 1 1 2.5 0.005 184 4 1 3.89662e-15 
-0.03625 8.41956e-12 3.84546e-09 0.0025 1 1 2.5 0.005 185 4 1 2.94129e-15 
-0.03375 3.40484e-12 1.8448e-09 0.0025 1 1 2.5 0.005 186 4 1 1.73017e-15 
-0.03125 1.17332e-12 7.67557e-10 0.0025 1 1 2.5 0.005 187 4 1 8.99902e-16 
-0.02875 3.1791e-13 2.6705e-10 0.0025 1 1 2.5 0.005 188 4 1 3.30758e-16 
-0.02625 5.17041e-14 7.2589e-11 0.0025 1 1 2.5 0.005 189 4 1 1.3749e-16 
-0.02375 -1.05608e-14 6.42331e-12 0.0025 1 1 2.5 0.005 190 4 1 4.40536e-17 
-0.02125 3.41344e-15 -8.18545e-12 0.0025 1 1 2.5 0.005 191 5 1 3.55271e-19 
-0.01875 7.8086e-15 3.41061e-13 0.0025 1 1 2.5 0.005 192 3 1 -1.42109e-18 
-0.01625 3.62416e-15 1.13687e-13 0.0025 1 1 2.5 0.005 193 4 1 -7.81597e-18 
-0.01375 3.7273e-15 1.47793e-12 0.0025 1 1 2.5 0.005 194 4 1 6.75016e-18 
-0.01125 1.87173e-15 -1.13687e-13 0.0025 1 1 2.5 0.005 195 4 1 -1.06581e-18 
-0.00875 1.0231e-15 7.95808e-13 0.0025 1 1 2.5 0.005 196 4 1 -3.55271e-19 
-0.00625 3.70919e-16 -3.41061e-13 0.0025 1 1 2.5 0.005 197 5 1 3.55271e-19 
-0.00375 1.07145e-15 -5.68434e-14 0.0025 1 1 2.5 0.005 198 4 1 1.2326e-33 
-0.00125 3.45583e-16 -1.13687e-13 0.0025 1 1 2.5 0.005 199 3 1 3.55271e-19 
0.00125 7.24088e-16 6.82121e-13 0.0025 1 1 2.5 0.005 200 5 1 3.55271e-19 
0.00375 8.52453e-16 -9.66338e-13 0.0025 1 1 2.5 0.005 201 5 1 1.77636e-18 
0.00625 6.61315e-16 2.27374e-13 0.0025 1 1 2.5 0.005 202 3 1 -1.06581e-18 
0.00875 1.97975e-15 -3.41061e-13 0.0025 1 1 2.5 0.005 203 3 1 0 
0.01125 8.15352e-16 0 0.0025 1 1 2.5 0.005 204 3 1 2.13163e-18 
0.01375 1.06085e-15 1.13687e-13 0.0025 1 1 2.5 0.005 205 4 1 -4.26326e-18 
0.01625 1.02395e-15 -6.25278e-13 0.0025 1 1 2.5 0.005 206 4 1 7.10543e-19 
0.01875 1.79774e-15 3.97904e-13 0.0025 1 1 2.5 0.005 207 3 1 -6.03961e-18 
0.02125 2.32894e-15 7.7307e-12 0.0025 1 1 2.5 0.005 208 5 1 1.42109e-18 
0.02375 1.26815e-14 -8.18545e-12 0.0025 1 1 2.5 0.005 209 4 1 5.47118e-17 
0.02625 -4.36885e-14 -7.00879e-11 0.0025 1 1 2.5 0.005 210 4 1 1.05516e-16 
0.02875 -3.11972e-13 -2.67846e-10 0.0025 1 1 2.5 0.005 211 4 1 3.78719e-16 
0.03125 -1.1688e-12 -7.66306e-10 0.0025 1 1 2.5 0.005 212 4 1 8.75389e-16 
0.03375 -3.40151e-12 -1.84536e-09 0.0025 1 1 2.5 0.005 213 4 1 1.71738e-15 
0.03625 -8.41317e-12 -3.84085e-09 0.0025 1 1 2.5 0.005 214 4 1 2.93952e-15 
0.03875 -1.81534e-11 -6.86236e-09 0.0025 1 1 2.5 0.005 215 4 1 3.92113e-15 
0.04125 -3.40595e-11 -9.77877e-09 0.0025 1 1 2.5 0.005 216 4 1 2.26663e-15 
0.04375 -5.35497e-11 -8.67334e-09 0.0025 1 1 2.5 0.005 217 4 1 -7.03047e-15 
0.04625 -6.14619e-11 7.89157e-09 0.0025 1 1 2.5 0.005 218 3 1 -3.29823e-14 
0.04875 -6.55632e-12 6.38332e-08 0.0025 1 1 2.5 0.005 219 5 1 4.47525e-14 
0.05125 8.39554e-12 -1.02414e-07 0.0025 1 1 2.5 0.005 220 4 1 3.68201e-13 
0.05375 -5.75685e-10 -6.7569e-07 0.0025 1 1 2.5 0.005 221 4 1 1.27342e-12 
0.05625 -3.13948e-09 -2.53136e-06 0.0025 1 1 2.5 0.005 222 4 1 3.70594e-12 
0.05875 -1.15347e-08 -7.6129e-06 0.0025 1 1 2.5 0.005 223 4 1 9.59386e-12 
