# Time [s]: 0.285074
# Columns: pos [m], vel [m/s], acc [m/s^2], mass [kg], dens [kg/m^3], pres [Pa], ene [J/kg], sml [m], id, neighbor, alpha, gradh, ...additional?
1.31034 -0.673109 0.000491984 0.0025 0.511045 0.432719 2.15249 0.00978388 0 4 1 -0.000134226 
1.31513 -0.673112 0.000564651 0.0025 0.536901 0.426182 1.95003 0.00931271 1 4 1 0.000179251 
1.31966 -0.673114 0.000628821 0.0025 0.54823 0.43085 1.96849 0.00912027 2 3 1 -1.90587e-05 
1.32425 -0.673117 0.000685072 0.0025 0.545963 0.429185 1.96463 0.00915812 3 5 1 3.4858e-06 
1.32882 -0.673119 0.000732412 0.0025 0.54636 0.429338 1.96457 0.00915147 4 4 1 -1.38801e-07 
1.3334 -0.673122 0.000775734 0.0025 0.54637 0.429307 1.96433 0.00915131 5 4 1 1.43609e-07 
1.33797 -0.673125 0.000822383 0.0025 0.546391 0.429304 1.96427 0.00915095 6 4 1 -3.64031e-09 
1.34255 -0.673128 0.000876997 0.0025 0.546403 0.4293 1.96421 0.00915075 7 4 1 8.0873e-09 
1.34712 -0.673132 0.000937873 0.0025 0.546415 0.429297 1.96415 0.00915055 8 4 1 4.60407e-09 
1.3517 -0.673135 0.000998936 0.0025 0.546426 0.429294 1.9641 0.00915037 9 4 1 5.31497e-09 
1.35627 -0.673139 0.00105643 0.0025 0.546435 0.429292 1.96406 0.00915022 10 4 1 -2.39624e-09 
1.36085 -0.673144 0.00111422 0.0025 0.546444 0.429289 1.96401 0.00915007 11 4 1 4.56585e-09 
1.36542 -0.673149 0.0011819 0.0025 0.546452 0.429286 1.96397 0.00914994 12 4 1 2.66203e-09 
1.37 -0.673154 0.00126635 0.0025 0.546458 0.429283 1.96393 0.00914983 13 4 1 3.34396e-09 
1.37457 -0.67316 0.00136495 0.0025 0.546463 0.429279 1.9639 0.00914974 14 4 1 1.86036e-09 
1.37915 -0.673166 0.00146774 0.0025 0.546468 0.429275 1.96386 0.00914967 15 4 1 -1.85188e-09 
1.38372 -0.673172 0.00156754 0.0025 0.546472 0.429271 1.96383 0.0091496 16 4 1 4.63436e-09 
1.3883 -0.673179 0.00166847 0.0025 0.546475 0.429267 1.9638 0.00914956 17 4 1 1.20453e-09 
1.39287 -0.673187 0.0017842 0.0025 0.546476 0.429263 1.96378 0.00914952 18 4 1 -1.50961e-09 
1.39745 -0.673195 0.00192683 0.0025 0.546478 0.429258 1.96375 0.0091495 19 4 1 2.32109e-09 
1.40202 -0.673204 0.00209639 0.0025 0.546479 0.429253 1.96372 0.00914949 20 3 1 7.29629e-10 
1.4066 -0.673214 0.00228038 0.0025 0.546478 0.429247 1.9637 0.00914949 21 4 1 7.16671e-10 
1.41117 -0.673224 0.00246429 0.0025 0.546477 0.429241 1.96367 0.00914951 22 4 1 5.74782e-10 
1.41575 -0.673236 0.00264559 0.0025 0.546475 0.429234 1.96365 0.00914954 23 4 1 -6.62499e-10 
1.42032 -0.673248 0.00284073 0.0025 0.546473 0.429227 1.96362 0.00914958 24 4 1 9.38221e-10 
1.4249 -0.673262 0.00307796 0.0025 0.54647 0.429219 1.9636 0.00914964 25 4 1 8.67477e-11 
1.42947 -0.673276 0.0033767 0.0025 0.546465 0.429211 1.96358 0.00914971 26 4 1 -1.15823e-09 
1.43405 -0.673292 0.00372716 0.0025 0.54646 0.429201 1.96355 0.0091498 27 4 1 3.03712e-10 
1.43862 -0.67331 0.00409165 0.0025 0.546454 0.429191 1.96353 0.0091499 28 4 1 -1.01557e-10 
1.4432 -0.673328 0.0044385 0.0025 0.546447 0.42918 1.9635 0.00915002 29 4 1 -1.73695e-09 
1.44777 -0.673349 0.0047852 0.0025 0.546438 0.429168 1.96348 0.00915016 30 4 1 -5.31331e-10 
1.45235 -0.673372 0.00520367 0.0025 0.546429 0.429155 1.96345 0.00915032 31 4 1 6.97975e-10 
1.45692 -0.673398 0.00576573 0.0025 0.546418 0.42914 1.96342 0.0091505 32 4 1 -2.50352e-09 
1.4615 -0.673426 0.00647522 0.0025 0.546406 0.429124 1.9634 0.00915071 33 4 1 -2.85192e-09 
1.46607 -0.673457 0.00726228 0.0025 0.546392 0.429106 1.96336 0.00915095 34 4 1 -1.44271e-10 
1.47065 -0.67349 0.00805399 0.0025 0.546375 0.429086 1.96333 0.00915122 35 4 1 -2.57235e-09 
1.47522 -0.673528 0.00885103 0.0025 0.546357 0.429063 1.96329 0.00915153 36 4 1 -3.36623e-09 
1.4798 -0.67357 0.00973868 0.0025 0.546336 0.429039 1.96325 0.00915188 37 4 1 -1.38372e-09 
1.48437 -0.673618 0.0108319 0.0025 0.546313 0.429011 1.96321 0.00915227 38 4 1 -3.29203e-09 
1.48895 -0.673671 0.0122016 0.0025 0.546286 0.42898 1.96317 0.00915271 39 4 1 -4.84901e-09 
1.49353 -0.673731 0.0138355 0.0025 0.546257 0.428946 1.96312 0.00915321 40 4 1 -4.11696e-09 
1.4981 -0.673798 0.0156663 0.0025 0.546223 0.428907 1.96306 0.00915378 41 4 1 -4.96475e-09 
-0.497319 -0.673872 0.0176477 0.0025 0.546184 0.428862 1.963 0.00915443 42 4 1 -6.51032e-09 
-0.492741 -0.673956 0.0198073 0.0025 0.54614 0.428812 1.96293 0.00915517 43 4 1 -6.40139e-09 
-0.488163 -0.674051 0.022228 0.0025 0.54609 0.428756 1.96285 0.009156 44 4 1 -6.02722e-09 
-0.483585 -0.674158 0.0249437 0.0025 0.546034 0.428694 1.96276 0.00915693 45 4 1 -7.8744e-09 
-0.479007 -0.674277 0.0278416 0.0025 0.545972 0.428624 1.96267 0.00915798 46 4 1 -8.33354e-09 
-0.474427 -0.67441 0.030765 0.0025 0.545903 0.428547 1.96256 0.00915913 47 4 1 -6.6136e-09 
-0.469847 -0.674556 0.0336536 0.0025 0.545828 0.428463 1.96245 0.0091604 48 4 1 -5.99953e-09 
-0.465267 -0.674714 0.0363368 0.0025 0.545747 0.428373 1.96233 0.00916176 49 4 1 -5.12956e-09 
-0.460686 -0.674881 0.038453 0.0025 0.545662 0.428279 1.9622 0.00916318 50 4 1 -1.91666e-09 
-0.456104 -0.675052 0.0396172 0.0025 0.545575 0.428182 1.96207 0.00916464 51 4 1 3.60701e-09 
-0.451521 -0.675219 0.0385905 0.0025 0.54549 0.428088 1.96194 0.00916607 52 4 1 1.04007e-08 
-0.446938 -0.675378 0.0338436 0.0025 0.545413 0.428004 1.96183 0.00916736 53 4 1 1.98242e-08 
-0.442354 -0.675523 0.0257506 0.0025 0.545354 0.427937 1.96174 0.00916836 54 4 1 2.98186e-08 
-0.437769 -0.675637 0.0168452 0.0025 0.545318 0.427897 1.96168 0.00916896 55 4 1 1.99075e-08 
-0.433185 -0.675692 0.0160056 0.0025 0.545299 0.427877 1.96165 0.00916928 56 5 1 5.72668e-08 
-0.4286 -0.675734 -0.0180734 0.0025 0.545329 0.427914 1.96169 0.00916877 57 4 1 1.80229e-07 
-0.424016 -0.675377 -0.121013 0.0025 0.545506 0.428108 1.96194 0.0091658 58 4 1 2.0587e-07 
-0.419434 -0.674779 -0.150058 0.0025 0.545851 0.428492 1.96243 0.00916 59 4 1 3.57269e-07 
-0.414856 -0.673757 -0.332005 0.0025 0.54648 0.429199 1.96333 0.00914947 60 4 1 8.49955e-07 
-0.410285 -0.671456 -0.730273 0.0025 0.547739 0.430594 1.96513 0.00912843 61 4 1 1.24421e-06 
-0.405727 -0.66738 -1.13141 0.0025 0.549837 0.432899 1.96814 0.00909361 62 4 1 1.27089e-06 
-0.401191 -0.661889 -1.39385 0.0025 0.552663 0.436009 1.97218 0.00904711 63 4 1 1.22175e-06 
-0.39668 -0.655463 -1.60851 0.0025 0.556051 0.439755 1.977 0.00899199 64 4 1 1.37649e-06 
-0.392199 -0.648089 -1.86223 0.0025 0.55998 0.444115 1.98257 0.00892889 65 4 1 1.68599e-06 
-0.387751 -0.639584 -2.16632 0.0025 0.564517 0.449162 1.98898 0.00885713 66 4 1 1.9806e-06 
-0.383342 -0.629926 -2.46664 0.0025 0.569692 0.454936 1.99626 0.00877667 67 4 1 2.17749e-06 
-0.378974 -0.619175 -2.73897 0.0025 0.575459 0.46139 2.00431 0.00868872 68 4 1 2.18409e-06 
-0.374653 -0.607678 -2.90224 0.0025 0.581671 0.468368 2.01294 0.00859593 69 4 1 2.02636e-06 
-0.370378 -0.595879 -2.97474 0.0025 0.588126 0.475653 2.02184 0.00850159 70 4 1 1.85265e-06 
-0.366151 -0.584029 -2.99529 0.0025 0.59467 0.483073 2.03081 0.00840802 71 4 1 1.69287e-06 
-0.36197 -0.572356 -2.97961 0.0025 0.601202 0.490514 2.0397 0.00831667 72 4 1 1.54169e-06 
-0.357834 -0.56089 -2.93889 0.0025 0.607655 0.497897 2.04843 0.00822836 73 4 1 1.41041e-06 
-0.353741 -0.549789 -2.8863 0.0025 0.613987 0.505175 2.05694 0.00814349 74 4 1 1.31607e-06 
-0.34969 -0.538982 -2.83886 0.0025 0.62019 0.512334 2.06522 0.00806204 75 4 1 1.25149e-06 
-0.345679 -0.528481 -2.7976 0.0025 0.626273 0.519381 2.0733 0.00798374 76 4 1 1.1736e-06 
-0.341706 -0.518277 -2.742 0.0025 0.632233 0.526315 2.08117 0.00790847 77 4 1 1.14372e-06 
-0.33777 -0.508339 -2.72183 0.0025 0.638094 0.533159 2.08886 0.00783583 78 4 1 1.14525e-06 
-0.33387 -0.498552 -2.70424 0.0025 0.643895 0.539958 2.09643 0.00776524 79 4 1 1.16072e-06 
-0.330005 -0.488896 -2.71368 0.0025 0.649671 0.546753 2.10393 0.0076962 80 4 1 1.22502e-06 
-0.326174 -0.479247 -2.75385 0.0025 0.65548 0.553612 2.11143 0.007628 81 4 1 1.32793e-06 
-0.322377 -0.46949 -2.83712 0.0025 0.661389 0.560612 2.11902 0.00755985 82 4 1 1.38793e-06 
-0.318614 -0.459599 -2.90183 0.0025 0.667425 0.567788 2.12674 0.00749148 83 4 1 1.42481e-06 
-0.314885 -0.449565 -2.98273 0.0025 0.67359 0.575144 2.13457 0.00742291 84 4 1 1.46051e-06 
-0.311191 -0.439366 -3.05326 0.0025 0.679887 0.582685 2.14253 0.00735417 85 4 1 1.48587e-06 
-0.307531 -0.429043 -3.13323 0.0025 0.686308 0.590401 2.1506 0.00728536 86 4 1 1.43933e-06 
-0.303905 -0.418657 -3.15037 0.0025 0.692807 0.59824 2.15872 0.00721702 87 4 1 1.38887e-06 
-0.300314 -0.408332 -3.18264 0.0025 0.699342 0.606155 2.16684 0.00714958 88 4 1 1.40168e-06 
-0.296756 -0.397986 -3.22367 0.0025 0.705922 0.614153 2.17497 0.00708294 89 4 1 1.34462e-06 
-0.293231 -0.387732 -3.21616 0.0025 0.712515 0.622197 2.18307 0.0070174 90 4 1 1.31363e-06 
-0.289738 -0.377542 -3.24236 0.0025 0.719106 0.630269 2.19113 0.00695308 91 4 1 1.30073e-06 
-0.286277 -0.367404 -3.24738 0.0025 0.7257 0.638373 2.19914 0.0068899 92 4 1 1.23878e-06 
-0.282848 -0.35741 -3.23478 0.0025 0.732269 0.646478 2.20708 0.00682809 93 4 1 1.23528e-06 
-0.279449 -0.34747 -3.25857 0.0025 0.738825 0.654595 2.21496 0.0067675 94 4 1 1.202e-06 
-0.27608 -0.337655 -3.23959 0.0025 0.745364 0.66272 2.22278 0.00670813 95 4 1 1.19411e-06 
-0.272741 -0.327923 -3.27196 0.0025 0.751893 0.670861 2.23055 0.00664988 96 4 1 1.18645e-06 
-0.26943 -0.318219 -3.26808 0.0025 0.758422 0.679029 2.23828 0.00659263 97 4 1 1.12508e-06 
-0.266148 -0.30869 -3.25609 0.0025 0.764921 0.687191 2.24593 0.00653662 98 4 1 1.14431e-06 
-0.262894 -0.299191 -3.29342 0.0025 0.771417 0.695374 2.25354 0.00648158 99 4 1 1.10594e-06 
-0.259666 -0.28978 -3.26543 0.0025 0.777899 0.703565 2.26109 0.00642757 100 4 1 1.04235e-06 
-0.256466 -0.280524 -3.25343 0.0025 0.784335 0.711731 2.26856 0.00637483 101 4 1 1.10539e-06 
-0.253291 -0.271281 -3.31356 0.0025 0.790784 0.719937 2.276 0.00632284 102 4 1 1.0768e-06 
-0.250143 -0.26205 -3.29034 0.0025 0.797241 0.728176 2.28341 0.00627163 103 4 1 9.79603e-07 
-0.24702 -0.253045 -3.25866 0.0025 0.803643 0.736379 2.29073 0.00622167 104 4 1 1.04797e-06 
-0.243921 -0.244031 -3.33096 0.0025 0.810053 0.744615 2.29802 0.00617243 105 4 1 1.03253e-06 
-0.240847 -0.235031 -3.30539 0.0025 0.816475 0.752888 2.30529 0.00612389 106 4 1 9.0165e-07 
-0.237797 -0.226238 -3.24666 0.0025 0.822823 0.761098 2.31244 0.00607664 107 4 1 9.71892e-07 
-0.23477 -0.217552 -3.32024 0.0025 0.829162 0.769324 2.31955 0.00603018 108 4 1 1.03609e-06 
-0.231767 -0.208721 -3.35355 0.0025 0.835555 0.777635 2.32669 0.00598405 109 4 1 8.78812e-07 
-0.228786 -0.200103 -3.2589 0.0025 0.841892 0.785904 2.33373 0.005939 110 4 1 8.82252e-07 
-0.225828 -0.191632 -3.30965 0.0025 0.848184 0.794144 2.34069 0.00589495 111 4 1 9.91384e-07 
-0.222891 -0.183079 -3.36921 0.0025 0.854529 0.802471 2.34768 0.00585117 112 4 1 9.05069e-07 
-0.219976 -0.174535 -3.32865 0.0025 0.860868 0.810811 2.35463 0.00580809 113 4 1 7.44409e-07 
-0.217083 -0.166303 -3.21865 0.0025 0.86709 0.819031 2.36142 0.00576641 114 4 1 8.58369e-07 
-0.21421 -0.158161 -3.33557 0.0025 0.8733 0.827262 2.36817 0.00572541 115 4 1 1.01663e-06 
-0.211358 -0.149732 -3.43181 0.0025 0.879631 0.835661 2.37503 0.0056842 116 4 1 7.64128e-07 
-0.208526 -0.141517 -3.25002 0.0025 0.885891 0.843994 2.38177 0.00564403 117 4 1 6.55183e-07 
-0.205713 -0.133684 -3.22598 0.0025 0.892006 0.852174 2.38833 0.00560534 118 4 1 9.84285e-07 
-0.20292 -0.125621 -3.4738 0.0025 0.898248 0.860535 2.395 0.00556639 119 4 1 9.45618e-07 
-0.200147 -0.117317 -3.41483 0.0025 0.904591 0.869038 2.40176 0.00552736 120 4 1 5.12401e-07 
-0.197393 -0.109564 -3.13223 0.0025 0.910696 0.877262 2.40822 0.00549031 121 4 1 6.3029e-07 
-0.194657 -0.102108 -3.2517 0.0025 0.916676 0.885355 2.41453 0.00545449 122 4 1 1.04056e-06 
-0.191938 -0.0941733 -3.51597 0.0025 0.922883 0.893752 2.42107 0.0054178 123 4 1 7.99341e-07 
-0.189239 -0.0861813 -3.32697 0.0025 0.929125 0.902211 2.42761 0.00538141 124 4 1 4.42695e-07 
-0.186557 -0.0788016 -3.13345 0.0025 0.935108 0.910364 2.43384 0.00534697 125 4 1 7.14688e-07 
-0.183892 -0.0714603 -3.33319 0.0025 0.941074 0.918517 2.44003 0.00531308 126 4 1 9.57322e-07 
-0.181244 -0.0636872 -3.47926 0.0025 0.94724 0.926942 2.44643 0.00527849 127 4 1 6.00704e-07 
-0.178613 -0.056166 -3.21349 0.0025 0.953319 0.935272 2.45269 0.00524484 128 4 1 4.75278e-07 
-0.175999 -0.0490838 -3.20797 0.0025 0.959201 0.943374 2.45872 0.00521267 129 4 1 8.05401e-07 
-0.1734 -0.0417434 -3.43007 0.0025 0.965164 0.951591 2.46484 0.00518046 130 4 1 5.00477e-07 
-0.170818 -0.0344735 -3.06565 0.0025 0.970998 0.959629 2.47079 0.00514934 131 4 1 -1.94905e-10 
-0.168251 -0.0283256 -2.6282 0.0025 0.976343 0.967061 2.47619 0.00512115 132 4 1 1.01245e-06 
-0.165697 -0.0217522 -3.62598 0.0025 0.982046 0.975024 2.48196 0.00509141 133 4 1 1.89734e-06 
-0.16316 -0.0130342 -4.35244 0.0025 0.988746 0.984279 2.4888 0.00505691 134 4 1 -4.79203e-07 
-0.16064 -0.00564733 -2.24754 0.0025 0.99448 0.992194 2.49455 0.00502775 135 4 1 -1.95969e-06 
-0.158132 -0.00262039 -0.923396 0.0025 0.998031 0.997274 2.498 0.00500987 136 4 1 1.522e-06 
-0.15563 0.00204231 -3.84901 0.0025 1.00254 1.0037 2.50253 0.00498731 137 4 1 3.4388e-06 
-0.153144 0.0119941 -5.13841 0.0025 1.0096 1.01344 2.50969 0.00495246 138 4 1 -1.42083e-06 
-0.150678 0.0189539 -1.3363 0.0025 1.01495 1.02084 2.51499 0.00492637 139 4 1 -3.49613e-06 
-0.148218 0.0193578 0.468559 0.0025 1.01655 1.02326 2.51645 0.00491859 140 4 1 7.62975e-07 
-0.145759 0.0212106 -2.42425 0.0025 1.0185 1.02607 2.51841 0.00490917 141 4 1 1.38408e-06 
-0.143309 0.0263068 -1.88019 0.0025 1.02169 1.03043 2.52164 0.00489386 142 4 1 -1.88507e-06 
-0.140865 0.027578 0.0967505 0.0025 1.02295 1.03219 2.52286 0.00488783 143 3 1 -1.72694e-06 
-0.138421 0.0265737 0.689661 0.0025 1.02211 1.03107 2.52201 0.00489183 144 4 1 -6.37223e-07 
-0.135973 0.0246714 1.02036 0.0025 1.02045 1.02875 2.52036 0.00489979 145 4 1 -2.55533e-07 
-0.133521 0.0223172 1.18961 0.0025 1.01842 1.02589 2.51835 0.00490957 146 4 1 -5.99152e-08 
-0.131064 0.019747 1.26518 0.0025 1.01623 1.0228 2.51617 0.00492016 147 4 1 6.13121e-08 
-0.128601 0.0171163 1.27305 0.0025 1.014 1.01967 2.51396 0.00493095 148 4 1 1.41713e-07 
-0.126133 0.0145387 1.23098 0.0025 1.01184 1.01663 2.51181 0.00494148 149 4 1 1.94026e-07 
-0.12366 0.0120987 1.15205 0.0025 1.00981 1.01378 2.50979 0.0049514 150 4 1 2.25231e-07 
-0.121182 0.00985813 1.04667 0.0025 1.00796 1.01118 2.50795 0.00496049 151 4 1 2.39646e-07 
-0.118699 0.00785952 0.924066 0.0025 1.00633 1.00888 2.50631 0.00496857 152 4 1 2.40289e-07 
-0.116213 0.00612709 0.792824 0.0025 1.00491 1.0069 2.5049 0.00497555 153 4 1 2.29723e-07 
-0.113724 0.004668 0.66093 0.0025 1.00373 1.00524 2.50372 0.00498141 154 4 1 2.10599e-07 
-0.111232 0.00347413 0.535289 0.0025 1.00277 1.00389 2.50276 0.00498619 155 4 1 1.85742e-07 
-0.108737 0.00252509 0.421213 0.0025 1.00201 1.00282 2.502 0.00498998 156 4 1 1.57965e-07 
-0.106242 0.00179202 0.322105 0.0025 1.00142 1.002 2.50142 0.0049929 157 4 1 1.29777e-07 
-0.103744 0.00124159 0.239457 0.0025 1.00098 1.00138 2.50098 0.00499509 158 4 1 1.03154e-07 
-0.101246 0.000839685 0.173125 0.0025 1.00066 1.00093 2.50066 0.00499668 159 4 1 7.9429e-08 
-0.0987478 0.000554208 0.121772 0.0025 1.00044 1.00061 2.50044 0.00499781 160 4 1 5.93103e-08 
-0.0962487 0.000356878 0.0833483 0.0025 1.00028 1.0004 2.50028 0.00499859 161 4 1 4.29818e-08 
-0.0937492 0.000224119 0.0555213 0.0025 1.00018 1.00025 2.50018 0.00499912 162 4 1 3.02477e-08 
-0.0912495 0.000137183 0.0359923 0.0025 1.00011 1.00015 2.50011 0.00499946 163 4 1 2.06779e-08 
-0.0887497 8.1781e-05 0.0227001 0.0025 1.00006 1.00009 2.50006 0.00499968 164 4 1 1.37336e-08 
-0.0862499 4.74354e-05 0.0139219 0.0025 1.00004 1.00005 2.50004 0.00499981 165 4 1 8.86112e-09 
-0.0837499 2.67359e-05 0.00829626 0.0025 1.00002 1.00003 2.50002 0.00499989 166 4 1 5.55224e-09 
-0.08125 1.46192e-05 0.00479858 0.0025 1.00001 1.00002 2.50001 0.00499994 167 4 1 3.37645e-09 
-0.07875 7.73895e-06 0.00269001 0.0025 1.00001 1.00001 2.50001 0.00499997 168 4 1 1.99098e-09 
-0.07625 3.95559e-06 0.00145871 0.0025 1 1 2.5 0.00499998 169 4 1 1.13691e-09 
-0.07375 1.94533e-06 0.000763225 0.0025 1 1 2.5 0.00499999 170 4 1 6.27592e-10 
-0.07125 9.16234e-07 0.000384004 0.0025 1 1 2.5 0.005 171 4 1 3.34121e-10 
-0.06875 4.10637e-07 0.000184937 0.0025 1 1 2.5 0.005 172 4 1 1.71016e-10 
-0.06625 1.73518e-07 8.47094e-05 0.0025 1 1 2.5 0.005 173 4 1 8.37933e-11 
-0.06375 6.81663e-08 3.65568e-05 0.0025 1 1 2.5 0.005 174 4 1 3.90663e-11 
-0.06125 2.43271e-08 1.4647e-05 0.0025 1 1 2.5 0.005 175 4 1 1.71788e-11 
-0.05875 7.55414e-09 5.31011e-06 0.0025 1 1 2.5 0.005 176 4 1 7.02805e-12 
-0.05625 1.84848e-09 1.65995e-06 0.0025 1 1 2.5 0.005 177 4 1 2.60523e-12 
-0.05375 2.48402e-10 3.86846e-07 0.0025 1 1 2.5 0.005 178 4 1 8.57236e-13 
-0.05125 -4.04845e-11 1.77204e-09 0.0025 1 1 2.5 0.005 179 5 1 2.15062e-13 
-0.04875 3.97646e-11 -4.39562e-08 0.0025 1 1 2.5 0.005 180 4 1 -8.9738e-15 
-0.04625 6.33268e-11 1.87123e-09 0.0025 1 1 2.5 0.005 181 3 1 -2.42263e-14 
-0.04375 4.77548e-11 1.01594e-08 0.0025 1 1 2.5 0.005 182 4 1 -2.14122e-15 
-0.04125 2.82351e-11 9.16111e-09 0.0025 1 1 2.5 0.005 183 4 1 3.56977e-15 
-0.03875 1.42628e-11 5.79746e-09 0.0025 1 1 2.5 0.005 184 4 1 3.76126e-15 
-0.03625 6.29042e-12 3.06687e-09 0.0025 1 1 2.5 0.005 185 4 1 2.53806e-15 
-0.03375 2.40797e-12 1.39158e-09 0.0025 1 1 2.5 0.005 186 4 1 1.39551e-15 
-0.03125 7.68246e-13 5.47516e-10 0.0025 1 1 2.5 0.005 187 4 1 6.96332e-16 
-0.02875 1.81831e-13 1.74737e-10 0.0025 1 1 2.5 0.005 188 4 1 2.24887e-16 
-0.02625 1.61783e-14 4.27463e-11 0.0025 1 1 2.5 0.005 189 4 1 9.48575e-17 
-0.02375 -1.03682e-14 -7.04858e-12 0.0025 1 1 2.5 0.005 190 5 1 2.62901e-17 
-0.02125 6.93275e-15 -3.24007e-12 0.0025 1 1 2.5 0.005 191 4 1 -5.68434e-18 
-0.01875 7.44091e-15 8.52651e-13 0.0025 1 1 2.5 0.005 192 3 1 2.13163e-18 
-0.01625 3.62416e-15 -1.13687e-13 0.0025 1 1 2.5 0.005 193 4 1 -6.03961e-18 
-0.01375 2.88687e-15 1.25056e-12 0.0025 1 1 2.5 0.005 194 4 1 4.26326e-18 
-0.01125 1.80169e-15 3.41061e-13 0.0025 1 1 2.5 0.005 195 4 1 -1.77636e-18 
-0.00875 6.20398e-16 5.11591e-13 0.0025 1 1 2.5 0.005 196 5 1 3.55271e-19 
-0.00625 6.86081e-16 -6.82121e-13 0.0025 1 1 2.5 0.005 197 4 1 -3.55271e-19 
-0.00375 9.839e-16 3.41061e-13 0.0025 1 1 2.5 0.005 198 3 1 7.10543e-19 
-0.00125 4.68146e-16 -2.84217e-13 0.0025 1 1 2.5 0.005 199 4 1 7.10543e-19 
0.00125 4.26435e-16 2.84217e-13 0.0025 1 1 2.5 0.005 200 3 1 3.55271e-19 
0.00375 1.20263e-15 -1.7053e-13 0.0025 1 1 2.5 0.005 201 5 1 -1.06581e-18 
0.00625 7.66369e-16 -5.68434e-13 0.0025 1 1 2.5 0.005 202 3 1 -3.55271e-19 
0.00875 1.73462e-15 1.13687e-12 0.0025 1 1 2.5 0.005 203 4 1 3.77482e-33 
0.01125 1.14802e-15 -1.08002e-12 0.0025 1 1 2.5 0.005 204 5 1 2.4869e-18 
0.01375 9.38292e-16 2.84217e-13 0.0025 1 1 2.5 0.005 205 4 1 -4.26326e-18 
0.01625 1.35662e-15 -4.54747e-13 0.0025 1 1 2.5 0.005 206 4 1 -3.55271e-19 
0.01875 1.78023e-15 -3.41061e-13 0.0025 1 1 2.5 0.005 207 4 1 -2.84217e-18 
0.02125 -1.13785e-15 3.52429e-12 0.0025 1 1 2.5 0.005 208 3 1 -4.26326e-18 
0.02375 1.38546e-14 4.37694e-12 0.0025 1 1 2.5 0.005 209 5 1 3.76588e-17 
0.02625 -1.00887e-14 -3.89946e-11 0.0025 1 1 2.5 0.005 210 4 1 6.21725e-17 
0.02875 -1.75402e-13 -1.75532e-10 0.0025 1 1 2.5 0.005 211 4 1 2.74625e-16 
0.03125 -7.64692e-13 -5.4564e-10 0.0025 1 1 2.5 0.005 212 4 1 6.73239e-16 
0.03375 -2.40379e-12 -1.39374e-09 0.0025 1 1 2.5 0.005 213 4 1 1.38201e-15 
0.03625 -6.28638e-12 -3.0638e-09 0.0025 1 1 2.5 0.005 214 4 1 2.53806e-15 
0.03875 -1.42548e-11 -5.79467e-09 0.0025 1 1 2.5 0.005 215 4 1 3.7808e-15 
0.04125 -2.82239e-11 -9.16663e-09 0.0025 1 1 2.5 0.005 216 4 1 3.56088e-15 
0.04375 -4.77489e-11 -1.01591e-08 0.0025 1 1 2.5 0.005 217 4 1 -2.14904e-15 
0.04625 -6.33176e-11 -1.86674e-09 0.0025 1 1 2.5 0.005 218 3 1 -2.42121e-14 
0.04875 -3.97566e-11 4.39523e-08 0.0025 1 1 2.5 0.005 219 4 1 -8.97167e-15 
0.05125 4.04878e-11 -1.77477e-09 0.0025 1 1 2.5 0.005 220 5 1 2.15058e-13 
0.05375 -2.48401e-10 -3.86846e-07 0.0025 1 1 2.5 0.005 221 4 1 8.57231e-13 
0.05625 -1.84847e-09 -1.65995e-06 0.0025 1 1 2.5 0.005 222 4 1 2.60525e-12 
0.05875 -7.55414e-09 -5.31012e-06 0.0025 1 1 2.5 0.005 223 4 1 7.02799e-12 
