# Time [s]: 0.286306
# Columns: pos [m], vel [m/s], acc [m/s^2], mass [kg], dens [kg/m^3], pres [Pa], ene [J/kg], sml [m], id, neighbor, alpha, gradh, ...additional?
1.30951 -0.673109 0.000493742 0.0025 0.511045 0.43272 2.15249 0.00978388 0 4 1 -0.000134226 
1.3143 -0.673111 0.00056384 0.0025 0.536901 0.426182 1.95003 0.0093127 1 4 1 0.000179251 
1.31883 -0.673114 0.000624276 0.0025 0.54823 0.430851 1.96849 0.00912026 2 3 1 -1.90587e-05 
1.32342 -0.673116 0.000676224 0.0025 0.545964 0.429185 1.96463 0.00915812 3 5 1 3.48581e-06 
1.32799 -0.673119 0.000720201 0.0025 0.546361 0.429339 1.96457 0.00915146 4 4 1 -1.38792e-07 
1.33257 -0.673121 0.000762055 0.0025 0.54637 0.429307 1.96433 0.0091513 5 4 1 1.43614e-07 
1.33714 -0.673124 0.000808576 0.0025 0.546392 0.429305 1.96427 0.00915094 6 4 1 -3.63831e-09 
1.34172 -0.673127 0.000862598 0.0025 0.546403 0.4293 1.96421 0.00915075 7 4 1 8.0905e-09 
1.34629 -0.673131 0.000920949 0.0025 0.546416 0.429298 1.96415 0.00915054 8 4 1 4.61115e-09 
1.35087 -0.673134 0.000977963 0.0025 0.546426 0.429295 1.9641 0.00915036 9 4 1 5.3247e-09 
1.35544 -0.673138 0.00103205 0.0025 0.546436 0.429292 1.96406 0.00915021 10 4 1 -2.38835e-09 
1.36002 -0.673143 0.00108902 0.0025 0.546445 0.429289 1.96401 0.00915006 11 4 1 4.56846e-09 
1.36459 -0.673147 0.00115799 0.0025 0.546453 0.429287 1.96397 0.00914992 12 4 1 2.66087e-09 
1.36917 -0.673152 0.0012431 0.0025 0.546459 0.429283 1.96393 0.00914982 13 4 1 3.3448e-09 
1.37374 -0.673158 0.00133918 0.0025 0.546464 0.42928 1.9639 0.00914973 14 4 1 1.868e-09 
1.37832 -0.673164 0.00143653 0.0025 0.546469 0.429276 1.96387 0.00914965 15 4 1 -1.83856e-09 
1.38289 -0.67317 0.00153108 0.0025 0.546473 0.429273 1.96383 0.00914959 16 4 1 4.6469e-09 
1.38747 -0.673177 0.00162999 0.0025 0.546476 0.429268 1.9638 0.00914954 17 4 1 1.21052e-09 
1.39204 -0.673185 0.0017469 0.0025 0.546478 0.429264 1.96378 0.00914951 18 4 1 -1.50944e-09 
1.39662 -0.673193 0.00189053 0.0025 0.546479 0.429259 1.96375 0.00914948 19 4 1 2.32281e-09 
1.40119 -0.673202 0.00205688 0.0025 0.54648 0.429254 1.96372 0.00914946 20 3 1 7.41069e-10 
1.40577 -0.673211 0.00223221 0.0025 0.54648 0.429249 1.9637 0.00914947 21 4 1 7.39769e-10 
1.41034 -0.673221 0.00240492 0.0025 0.546479 0.429243 1.96367 0.00914948 22 4 1 6.02621e-10 
1.41492 -0.673232 0.00257788 0.0025 0.546477 0.429236 1.96365 0.00914951 23 4 1 -6.41461e-10 
1.41949 -0.673245 0.00277144 0.0025 0.546475 0.429229 1.96363 0.00914955 24 4 1 9.45511e-10 
1.42407 -0.673258 0.00301197 0.0025 0.546472 0.429221 1.9636 0.00914961 25 4 1 8.63905e-11 
1.42864 -0.673272 0.0033106 0.0025 0.546468 0.429213 1.96358 0.00914967 26 4 1 -1.14744e-09 
1.43322 -0.673288 0.00364824 0.0025 0.546463 0.429204 1.96356 0.00914976 27 4 1 3.4339e-10 
1.43779 -0.673305 0.00398671 0.0025 0.546457 0.429194 1.96353 0.00914986 28 4 1 -3.57579e-11 
1.44237 -0.673323 0.004307 0.0025 0.54645 0.429183 1.96351 0.00914998 29 4 1 -1.6734e-09 
1.44694 -0.673343 0.00464318 0.0025 0.546442 0.429171 1.96348 0.00915011 30 4 1 -5.01195e-10 
1.45152 -0.673366 0.00506953 0.0025 0.546433 0.429158 1.96346 0.00915026 31 4 1 6.95562e-10 
1.45609 -0.673391 0.00563906 0.0025 0.546422 0.429144 1.96343 0.00915044 32 4 1 -2.49703e-09 
1.46067 -0.673418 0.00633138 0.0025 0.54641 0.429129 1.9634 0.00915064 33 4 1 -2.78924e-09 
1.46524 -0.673448 0.00707109 0.0025 0.546396 0.429111 1.96337 0.00915087 34 4 1 -1.76982e-11 
1.46982 -0.67348 0.00780398 0.0025 0.54638 0.429091 1.96334 0.00915113 35 4 1 -2.42145e-09 
1.47439 -0.673517 0.00855571 0.0025 0.546362 0.42907 1.9633 0.00915143 36 4 1 -3.24181e-09 
1.47897 -0.673558 0.00942192 0.0025 0.546343 0.429046 1.96326 0.00915177 37 4 1 -1.30524e-09 
1.48354 -0.673605 0.0105058 0.0025 0.54632 0.429019 1.96322 0.00915214 38 4 1 -3.23223e-09 
1.48812 -0.673656 0.0118528 0.0025 0.546295 0.428989 1.96318 0.00915257 39 4 1 -4.75431e-09 
1.4927 -0.673714 0.0134314 0.0025 0.546266 0.428956 1.96313 0.00915305 40 4 1 -3.95048e-09 
1.49727 -0.673779 0.0151776 0.0025 0.546233 0.428918 1.96307 0.00915361 41 4 1 -4.73789e-09 
-0.498149 -0.673851 0.0170678 0.0025 0.546195 0.428875 1.96301 0.00915424 42 4 1 -6.27489e-09 
-0.493572 -0.673932 0.0191528 0.0025 0.546153 0.428827 1.96294 0.00915495 43 4 1 -6.20709e-09 
-0.488994 -0.674024 0.021515 0.0025 0.546105 0.428773 1.96287 0.00915575 44 4 1 -5.87588e-09 
-0.484416 -0.674128 0.0241613 0.0025 0.546051 0.428712 1.96279 0.00915666 45 4 1 -7.73902e-09 
-0.479837 -0.674243 0.0269809 0.0025 0.54599 0.428644 1.96269 0.00915767 46 4 1 -8.2607e-09 
-0.475258 -0.674373 0.0298794 0.0025 0.545923 0.428569 1.96259 0.00915879 47 4 1 -6.73196e-09 
-0.470678 -0.674515 0.032826 0.0025 0.54585 0.428488 1.96248 0.00916003 48 4 1 -6.38216e-09 
-0.466098 -0.67467 0.0356435 0.0025 0.545771 0.428399 1.96236 0.00916136 49 4 1 -5.81981e-09 
-0.461517 -0.674834 0.0380214 0.0025 0.545686 0.428306 1.96223 0.00916277 50 4 1 -2.91632e-09 
-0.456935 -0.675003 0.0394378 0.0025 0.5456 0.42821 1.9621 0.00916423 51 4 1 2.63497e-09 
-0.452353 -0.675172 0.0384707 0.0025 0.545514 0.428115 1.96198 0.00916566 52 4 1 9.57338e-09 
-0.44777 -0.675336 0.0340472 0.0025 0.545436 0.428029 1.96186 0.00916697 53 4 1 1.77227e-08 
-0.443186 -0.67549 0.0277638 0.0025 0.545373 0.427959 1.96177 0.00916803 54 4 1 2.51376e-08 
-0.438602 -0.675613 0.0210044 0.0025 0.545331 0.427911 1.9617 0.00916874 55 4 1 2.37093e-08 
-0.434017 -0.675676 0.0113305 0.0025 0.545308 0.427885 1.96166 0.00916914 56 5 1 3.10312e-08 
-0.429432 -0.675738 0.0099309 0.0025 0.545312 0.427894 1.96166 0.00916906 57 4 1 1.53354e-07 
-0.424848 -0.675516 -0.104576 0.0025 0.545442 0.428038 1.96185 0.00916687 58 4 1 2.0752e-07 
-0.420266 -0.674955 -0.137286 0.0025 0.545741 0.428368 1.96227 0.00916185 59 4 1 2.73192e-07 
-0.415686 -0.674117 -0.255836 0.0025 0.54626 0.428952 1.96301 0.00915314 60 4 1 6.92123e-07 
-0.411112 -0.672277 -0.60259 0.0025 0.547304 0.430113 1.96451 0.00913569 61 4 1 1.16087e-06 
-0.406551 -0.668709 -1.02545 0.0025 0.549155 0.432151 1.96716 0.00910489 62 4 1 1.29115e-06 
-0.402008 -0.663567 -1.33021 0.0025 0.551789 0.435046 1.97093 0.00906143 63 4 1 1.22088e-06 
-0.397489 -0.657404 -1.54325 0.0025 0.555023 0.438616 1.97554 0.00900864 64 4 1 1.29712e-06 
-0.392999 -0.65033 -1.77672 0.0025 0.558781 0.442783 1.98088 0.00894805 65 4 1 1.57993e-06 
-0.388541 -0.642194 -2.07054 0.0025 0.563122 0.447609 1.98702 0.00887906 66 4 1 1.88195e-06 
-0.38412 -0.632903 -2.36674 0.0025 0.568092 0.453149 1.99401 0.00880139 67 4 1 2.1168e-06 
-0.379739 -0.6225 -2.65653 0.0025 0.573671 0.459386 2.00182 0.0087158 68 4 1 2.19117e-06 
-0.375404 -0.611225 -2.854 0.0025 0.579747 0.466203 2.01027 0.00862445 69 4 1 2.0624e-06 
-0.371115 -0.599526 -2.94605 0.0025 0.586122 0.473388 2.01909 0.00853065 70 4 1 1.89384e-06 
-0.366873 -0.587713 -2.98518 0.0025 0.592628 0.480754 2.02802 0.008437 71 4 1 1.7227e-06 
-0.362677 -0.576021 -2.97058 0.0025 0.599146 0.488168 2.03691 0.00834521 72 4 1 1.57847e-06 
-0.358527 -0.564516 -2.94728 0.0025 0.605604 0.495547 2.04566 0.00825622 73 4 1 1.43938e-06 
-0.354421 -0.553346 -2.88864 0.0025 0.611953 0.502833 2.05421 0.00817056 74 4 1 1.32938e-06 
-0.350356 -0.542482 -2.84387 0.0025 0.618172 0.510002 2.06253 0.00808836 75 4 1 1.26829e-06 
-0.346332 -0.531931 -2.80235 0.0025 0.624273 0.51706 2.07065 0.00800932 76 4 1 1.18843e-06 
-0.342347 -0.521659 -2.7492 0.0025 0.630251 0.524005 2.07855 0.00793335 77 4 1 1.1381e-06 
-0.338399 -0.511688 -2.71493 0.0025 0.636119 0.530849 2.08627 0.00786016 78 4 1 1.13512e-06 
-0.334487 -0.50188 -2.69979 0.0025 0.641914 0.537633 2.09385 0.0077892 79 4 1 1.14418e-06 
-0.330609 -0.492228 -2.69652 0.0025 0.647672 0.544398 2.10134 0.00771995 80 4 1 1.18604e-06 
-0.326766 -0.482621 -2.72403 0.0025 0.653439 0.5512 2.1088 0.00765182 81 4 1 1.28717e-06 
-0.322957 -0.472963 -2.79939 0.0025 0.659287 0.55812 2.11633 0.00758395 82 4 1 1.3586e-06 
-0.319182 -0.463152 -2.8655 0.0025 0.665254 0.565205 2.12397 0.00751592 83 4 1 1.39509e-06 
-0.315441 -0.453213 -2.93948 0.0025 0.671346 0.572463 2.13172 0.00744773 84 4 1 1.43695e-06 
-0.311734 -0.443104 -3.01481 0.0025 0.677568 0.579904 2.1396 0.00737934 85 4 1 1.47082e-06 
-0.308062 -0.43288 -3.09428 0.0025 0.68392 0.587528 2.1476 0.0073108 86 4 1 1.45139e-06 
-0.304423 -0.422529 -3.13512 0.0025 0.69037 0.595297 2.15568 0.0072425 87 4 1 1.38832e-06 
-0.300819 -0.412234 -3.15253 0.0025 0.696865 0.603152 2.16377 0.00717499 88 4 1 1.39234e-06 
-0.297248 -0.401947 -3.20368 0.0025 0.703404 0.611089 2.17187 0.00710829 89 4 1 1.35391e-06 
-0.293711 -0.391683 -3.20016 0.0025 0.709968 0.619085 2.17995 0.00704257 90 4 1 1.30468e-06 
-0.290206 -0.381522 -3.21758 0.0025 0.716527 0.627108 2.18798 0.0069781 91 4 1 1.30691e-06 
-0.286732 -0.371399 -3.23826 0.0025 0.723097 0.63517 2.19598 0.00691471 92 4 1 1.24256e-06 
-0.283291 -0.361383 -3.21626 0.0025 0.729646 0.643238 2.20392 0.00685264 93 4 1 1.22979e-06 
-0.27988 -0.351476 -3.24404 0.0025 0.736178 0.651314 2.21179 0.00679184 94 4 1 1.20865e-06 
-0.276499 -0.341639 -3.22851 0.0025 0.742699 0.659404 2.2196 0.0067322 95 4 1 1.17512e-06 
-0.273147 -0.331935 -3.24109 0.0025 0.749198 0.667498 2.22735 0.0066738 96 4 1 1.1969e-06 
-0.269825 -0.322246 -3.26763 0.0025 0.755705 0.675626 2.23507 0.00661634 97 4 1 1.13266e-06 
-0.266531 -0.312688 -3.2359 0.0025 0.76219 0.683756 2.24272 0.00656005 98 4 1 1.12276e-06 
-0.263265 -0.303235 -3.26981 0.0025 0.768656 0.691892 2.25031 0.00650486 99 4 1 1.12557e-06 
-0.260026 -0.293804 -3.26661 0.0025 0.775122 0.700052 2.25786 0.0064506 100 4 1 1.04394e-06 
-0.256814 -0.284518 -3.23355 0.0025 0.781544 0.708186 2.26532 0.00639759 101 4 1 1.06538e-06 
-0.253628 -0.275339 -3.27314 0.0025 0.787952 0.716331 2.27274 0.00634556 102 4 1 1.10735e-06 
-0.250468 -0.266114 -3.30447 0.0025 0.79439 0.724535 2.28015 0.00629414 103 4 1 9.95845e-07 
-0.247334 -0.257045 -3.23957 0.0025 0.800788 0.732717 2.28747 0.00624385 104 4 1 9.96849e-07 
-0.244224 -0.24811 -3.28688 0.0025 0.807157 0.740891 2.29473 0.00619458 105 4 1 1.05704e-06 
-0.241139 -0.239111 -3.31458 0.0025 0.813555 0.749124 2.30199 0.00614586 106 4 1 9.49969e-07 
-0.238078 -0.230242 -3.25824 0.0025 0.819916 0.757335 2.30917 0.00609818 107 4 1 9.00892e-07 
-0.235041 -0.221598 -3.24907 0.0025 0.826216 0.765499 2.31625 0.00605168 108 4 1 1.02436e-06 
-0.232027 -0.212855 -3.3513 0.0025 0.83256 0.773739 2.32335 0.00600557 109 4 1 9.58467e-07 
-0.229035 -0.204132 -3.28546 0.0025 0.838912 0.78201 2.33043 0.0059601 110 4 1 8.41116e-07 
-0.226066 -0.195677 -3.25869 0.0025 0.845187 0.790216 2.33738 0.00591585 111 4 1 9.30009e-07 
-0.223119 -0.187203 -3.32191 0.0025 0.851469 0.798453 2.34431 0.0058722 112 4 1 9.74264e-07 
-0.220194 -0.178661 -3.36374 0.0025 0.8578 0.806772 2.35127 0.00582886 113 4 1 8.10094e-07 
-0.21729 -0.170281 -3.24676 0.0025 0.864064 0.815028 2.35812 0.00578661 114 4 1 7.3885e-07 
-0.214407 -0.1622 -3.22628 0.0025 0.870221 0.823179 2.36483 0.00574567 115 4 1 9.7166e-07 
-0.211545 -0.153954 -3.40734 0.0025 0.876465 0.83146 2.3716 0.00570473 116 4 1 9.30801e-07 
-0.208703 -0.145582 -3.34879 0.0025 0.882773 0.839838 2.37842 0.00566397 117 4 1 6.3826e-07 
-0.205881 -0.137621 -3.1797 0.0025 0.88892 0.848041 2.38502 0.0056248 118 4 1 7.82222e-07 
-0.203078 -0.12981 -3.31969 0.0025 0.895034 0.85623 2.39157 0.00558638 119 4 1 1.04351e-06 
-0.200294 -0.121584 -3.4934 0.0025 0.901331 0.864666 2.39829 0.00554735 120 4 1 7.35502e-07 
-0.19753 -0.113493 -3.25954 0.0025 0.90757 0.873044 2.40492 0.00550922 121 4 1 4.63696e-07 
-0.194785 -0.106016 -3.10936 0.0025 0.913543 0.881111 2.41123 0.0054732 122 4 1 8.35791e-07 
-0.192057 -0.0984327 -3.38079 0.0025 0.919573 0.889275 2.41758 0.00543731 123 4 1 1.01724e-06 
-0.189347 -0.0903784 -3.47504 0.0025 0.925821 0.89773 2.42415 0.00540061 124 4 1 5.89612e-07 
-0.186656 -0.0826856 -3.19082 0.0025 0.931937 0.906035 2.43054 0.00536517 125 4 1 4.77436e-07 
-0.183982 -0.0754541 -3.15848 0.0025 0.937833 0.914087 2.43667 0.00533144 126 4 1 8.8631e-07 
-0.181325 -0.0679656 -3.4421 0.0025 0.943866 0.922332 2.44293 0.00529736 127 4 1 8.4753e-07 
-0.178685 -0.0602202 -3.37126 0.0025 0.950019 0.930744 2.44929 0.00526305 128 4 1 4.51126e-07 
-0.176062 -0.0529763 -3.13354 0.0025 0.955963 0.93891 2.4554 0.00523033 129 4 1 5.99398e-07 
-0.173454 -0.045897 -3.29222 0.0025 0.96182 0.946986 2.46141 0.00519848 130 4 1 8.14417e-07 
-0.170863 -0.0384709 -3.39037 0.0025 0.967782 0.955195 2.46752 0.00516645 131 4 1 2.07443e-07 
-0.168288 -0.0316122 -2.7751 0.0025 0.973398 0.962953 2.47322 0.00513664 132 4 1 1.58457e-07 
-0.165727 -0.0256868 -2.80869 0.0025 0.978675 0.970321 2.47854 0.00510895 133 4 1 1.60185e-06 
-0.163179 -0.0183479 -4.12763 0.0025 0.984777 0.978812 2.48475 0.00507729 134 4 1 1.37746e-06 
-0.160649 -0.00945722 -3.86734 0.0025 0.991435 0.987982 2.49152 0.00504319 135 4 1 -1.56154e-06 
-0.158136 -0.00382812 -1.28658 0.0025 0.996234 0.994663 2.49627 0.0050189 136 4 1 -1.14946e-06 
-0.15563 -0.00128455 -1.61035 0.0025 0.999593 0.999525 2.49954 0.00500204 137 4 1 2.98758e-06 
-0.153134 0.00557834 -4.94828 0.0025 1.00518 1.00737 2.50521 0.00497423 138 4 1 2.14889e-06 
-0.150656 0.0156162 -4.05163 0.0025 1.01219 1.01701 2.5123 0.00493978 139 4 1 -3.12675e-06 
-0.148194 0.019772 -0.241939 0.0025 1.01597 1.02231 2.51594 0.00492142 140 4 1 -2.17666e-06 
-0.145735 0.0194882 -0.18291 0.0025 1.01715 1.02416 2.51704 0.00491567 141 4 1 1.78606e-06 
-0.143278 0.0232945 -2.80228 0.0025 1.01976 1.0278 2.5197 0.00490311 142 4 1 4.14417e-08 
-0.140831 0.0271865 -0.811481 0.0025 1.02243 1.03145 2.52237 0.00489031 143 4 1 -2.20843e-06 
-0.138388 0.0272213 0.317619 0.0025 1.02269 1.03186 2.52259 0.00488906 144 3 1 -1.16924e-06 
-0.135942 0.0258186 0.838411 0.0025 1.02146 1.03016 2.52136 0.00489496 145 4 1 -4.4969e-07 
-0.133493 0.0237245 1.08845 0.0025 1.01964 1.0276 2.51955 0.00490371 146 4 1 -1.70629e-07 
-0.131039 0.0212809 1.22128 0.0025 1.01753 1.02464 2.51747 0.00491384 147 4 1 -9.84818e-09 
-0.128579 0.0186841 1.26931 0.0025 1.01533 1.02153 2.51527 0.00492452 148 4 1 9.39721e-08 
-0.126114 0.0160726 1.25714 0.0025 1.01313 1.01844 2.51309 0.00493521 149 4 1 1.6316e-07 
-0.123644 0.0135485 1.20005 0.0025 1.01102 1.01547 2.51099 0.0049455 150 4 1 2.07085e-07 
-0.121169 0.0111873 1.11014 0.0025 1.00906 1.01272 2.50904 0.0049551 151 4 1 2.31499e-07 
-0.118689 0.00904355 0.997462 0.0025 1.0073 1.01024 2.50728 0.00496378 152 4 1 2.40241e-07 
-0.116205 0.00715218 0.871039 0.0025 1.00575 1.00807 2.50574 0.00497142 153 4 1 2.36197e-07 
-0.113717 0.00553046 0.739276 0.0025 1.00443 1.00622 2.50442 0.00497795 154 4 1 2.22019e-07 
-0.111227 0.00417923 0.609739 0.0025 1.00334 1.00468 2.50333 0.00498337 155 4 1 2.00456e-07 
-0.108734 0.00308524 0.488689 0.0025 1.00246 1.00345 2.50245 0.00498775 156 4 1 1.74341e-07 
-0.106239 0.00222449 0.380653 0.0025 1.00177 1.00248 2.50176 0.00499118 157 4 1 1.46365e-07 
-0.103743 0.0015662 0.288238 0.0025 1.00124 1.00174 2.50124 0.0049938 158 4 1 1.18809e-07 
-0.101245 0.00107665 0.212254 0.0025 1.00085 1.0012 2.50085 0.00499575 159 4 1 9.3379e-08 
-0.098747 0.000722497 0.152054 0.0025 1.00057 1.0008 2.50057 0.00499715 160 4 1 7.1143e-08 
-0.0962481 0.00047319 0.106002 0.0025 1.00037 1.00052 2.50037 0.00499813 161 4 1 5.25892e-08 
-0.0937489 0.000302362 0.0719255 0.0025 1.00024 1.00034 2.50024 0.00499881 162 4 1 3.77436e-08 
-0.0912493 0.000188413 0.047504 0.0025 1.00015 1.00021 2.50015 0.00499926 163 4 1 2.63135e-08 
-0.0887496 0.000114422 0.0305349 0.0025 1.00009 1.00013 2.50009 0.00499955 164 4 1 1.78245e-08 
-0.0862498 6.76659e-05 0.0190956 0.0025 1.00005 1.00008 2.50005 0.00499973 165 4 1 1.17322e-08 
-0.0837499 3.89244e-05 0.0116114 0.0025 1.00003 1.00004 2.50003 0.00499985 166 4 1 7.50227e-09 
-0.0812499 2.17506e-05 0.00685924 0.0025 1.00002 1.00002 2.50002 0.00499991 167 4 1 4.65875e-09 
-0.07875 1.17859e-05 0.00393185 0.0025 1.00001 1.00001 2.50001 0.00499995 168 4 1 2.80743e-09 
-0.07625 6.17921e-06 0.00218353 0.0025 1 1.00001 2.5 0.00499998 169 4 1 1.64009e-09 
-0.07375 3.1256e-06 0.00117236 0.0025 1 1 2.5 0.00499999 170 4 1 9.27547e-10 
-0.07125 1.51961e-06 0.00060689 0.0025 1 1 2.5 0.00499999 171 4 1 5.0686e-10 
-0.06875 7.06533e-07 0.000301798 0.0025 1 1 2.5 0.005 172 4 1 2.66945e-10 
-0.06625 3.11945e-07 0.000143453 0.0025 1 1 2.5 0.005 173 4 1 1.35038e-10 
-0.06375 1.29456e-07 6.47171e-05 0.0025 1 1 2.5 0.005 174 4 1 6.53062e-11 
-0.06125 4.97007e-08 2.74207e-05 0.0025 1 1 2.5 0.005 175 4 1 2.99936e-11 
-0.05875 1.71837e-08 1.07292e-05 0.0025 1 1 2.5 0.005 176 4 1 1.29538e-11 
-0.05625 5.0778e-09 3.76225e-06 0.0025 1 1 2.5 0.005 177 4 1 5.17964e-12 
-0.05375 1.12535e-09 1.10905e-06 0.0025 1 1 2.5 0.005 178 4 1 1.85982e-12 
-0.05125 9.58249e-11 2.35984e-07 0.0025 1 1 2.5 0.005 179 4 1 5.87764e-13 
-0.04875 -2.74154e-11 -4.64894e-08 0.0025 1 1 2.5 0.005 180 5 1 1.22962e-13 
-0.04625 5.16216e-11 -2.40975e-08 0.0025 1 1 2.5 0.005 181 4 1 -2.70912e-14 
-0.04375 5.76235e-11 4.53417e-09 0.0025 1 1 2.5 0.005 182 3 1 -1.51712e-14 
-0.04125 4.01734e-11 1.00468e-08 0.0025 1 1 2.5 0.005 183 4 1 2.89191e-16 
-0.03875 2.26898e-11 7.84081e-09 0.0025 1 1 2.5 0.005 184 4 1 3.6966e-15 
-0.03625 1.10605e-11 4.72966e-09 0.0025 1 1 2.5 0.005 185 4 1 3.30012e-15 
-0.03375 4.71079e-12 2.39555e-09 0.0025 1 1 2.5 0.005 186 4 1 2.09717e-15 
-0.03125 1.73379e-12 1.05229e-09 0.0025 1 1 2.5 0.005 187 4 1 1.14362e-15 
-0.02875 5.21373e-13 3.93584e-10 0.0025 1 1 2.5 0.005 188 4 1 4.61853e-16 
-0.02625 1.10351e-13 1.17836e-10 0.0025 1 1 2.5 0.005 189 4 1 1.93623e-16 
-0.02375 -1.96854e-16 2.7228e-11 0.0025 1 1 2.5 0.005 190 4 1 6.75016e-17 
-0.02125 -2.74891e-15 -1.18234e-11 0.0025 1 1 2.5 0.005 191 5 1 8.88178e-18 
-0.01875 7.52849e-15 -1.25056e-12 0.0025 1 1 2.5 0.005 192 4 1 -2.4869e-18 
-0.01625 3.69418e-15 1.13687e-13 0.0025 1 1 2.5 0.005 193 3 1 -8.52651e-18 
-0.01375 4.72518e-15 1.76215e-12 0.0025 1 1 2.5 0.005 194 4 1 8.17124e-18 
-0.01125 1.76669e-15 -2.27374e-13 0.0025 1 1 2.5 0.005 195 4 1 -1.77636e-18 
-0.00875 1.56581e-15 9.66338e-13 0.0025 1 1 2.5 0.005 196 4 1 3.55271e-19 
-0.00625 2.13359e-16 -1.7053e-13 0.0025 1 1 2.5 0.005 197 5 1 1.42109e-18 
-0.00375 9.13885e-16 -4.54747e-13 0.0025 1 1 2.5 0.005 198 4 1 7.10543e-19 
-0.00125 3.6309e-16 1.7053e-13 0.0025 1 1 2.5 0.005 199 3 1 -2.13163e-18 
0.00125 1.0217e-15 2.84217e-13 0.0025 1 1 2.5 0.005 200 5 1 7.10543e-19 
0.00375 4.67306e-16 -2.84217e-13 0.0025 1 1 2.5 0.005 201 4 1 7.10543e-19 
0.00625 8.53888e-16 3.97904e-13 0.0025 1 1 2.5 0.005 202 4 1 3.77482e-33 
0.00875 1.61211e-15 -8.52651e-13 0.0025 1 1 2.5 0.005 203 4 1 7.10543e-19 
0.01125 9.20392e-16 3.41061e-13 0.0025 1 1 2.5 0.005 204 3 1 2.4869e-18 
0.01375 1.04335e-15 -1.7053e-13 0.0025 1 1 2.5 0.005 205 5 1 -4.26326e-18 
0.01625 6.21294e-16 -6.82121e-13 0.0025 1 1 2.5 0.005 206 3 1 -3.55271e-19 
0.01875 2.53302e-15 1.98952e-12 0.0025 1 1 2.5 0.005 207 4 1 -5.32907e-18 
0.02125 7.80852e-15 1.00613e-11 0.0025 1 1 2.5 0.005 208 5 1 9.59233e-18 
0.02375 2.00244e-15 -2.6489e-11 0.0025 1 1 2.5 0.005 209 4 1 8.02913e-17 
0.02625 -1.01373e-13 -1.17211e-10 0.0025 1 1 2.5 0.005 210 4 1 1.62004e-16 
0.02875 -5.15785e-13 -3.93925e-10 0.0025 1 1 2.5 0.005 211 4 1 5.08038e-16 
0.03125 -1.72826e-12 -1.05024e-09 0.0025 1 1 2.5 0.005 212 4 1 1.11946e-15 
0.03375 -4.70779e-12 -2.39606e-09 0.0025 1 1 2.5 0.005 213 4 1 2.08296e-15 
0.03625 -1.10519e-11 -4.72699e-09 0.0025 1 1 2.5 0.005 214 4 1 3.30083e-15 
0.03875 -2.26817e-11 -7.8407e-09 0.0025 1 1 2.5 0.005 215 4 1 3.71685e-15 
0.04125 -4.01667e-11 -1.0051e-08 0.0025 1 1 2.5 0.005 216 4 1 2.78533e-16 
0.04375 -5.76164e-11 -4.5311e-09 0.0025 1 1 2.5 0.005 217 3 1 -1.51804e-14 
0.04625 -5.16103e-11 2.40962e-08 0.0025 1 1 2.5 0.005 218 4 1 -2.70745e-14 
0.04875 2.74204e-11 4.64877e-08 0.0025 1 1 2.5 0.005 219 5 1 1.2296e-13 
0.05125 -9.58246e-11 -2.35985e-07 0.0025 1 1 2.5 0.005 220 4 1 5.87756e-13 
0.05375 -1.12535e-09 -1.10905e-06 0.0025 1 1 2.5 0.005 221 4 1 1.85981e-12 
0.05625 -5.0778e-09 -3.76225e-06 0.0025 1 1 2.5 0.005 222 4 1 5.17966e-12 
