# Time [s]: 0.28877
# Columns: pos [m], vel [m/s], acc [m/s^2], mass [kg], dens [kg/m^3], pres [Pa], ene [J/kg], sml [m], id, neighbor, alpha, gradh, ...additional?
1.30786 -0.673108 0.000496034 0.0025 0.511046 0.432721 2.15249 0.00978386 0 4 1 -0.000134226 
1.31264 -0.67311 0.000559987 0.0025 0.536902 0.426183 1.95003 0.00931269 1 4 1 0.000179251 
1.31718 -0.673112 0.000612735 0.0025 0.548231 0.430851 1.96849 0.00912025 2 3 1 -1.90587e-05 
1.32176 -0.673114 0.000657086 0.0025 0.545965 0.429186 1.96463 0.0091581 3 5 1 3.48582e-06 
1.32633 -0.673117 0.000696176 0.0025 0.546362 0.429339 1.96457 0.00915145 4 4 1 -1.38779e-07 
1.33091 -0.673119 0.000736494 0.0025 0.546371 0.429308 1.96433 0.00915129 5 4 1 1.4362e-07 
1.33548 -0.673122 0.000782606 0.0025 0.546393 0.429306 1.96427 0.00915093 6 4 1 -3.6339e-09 
1.34006 -0.673125 0.000833961 0.0025 0.546404 0.429301 1.96421 0.00915073 7 4 1 8.09982e-09 
1.34464 -0.673128 0.000886034 0.0025 0.546417 0.429299 1.96415 0.00915052 8 4 1 4.62735e-09 
1.34921 -0.673132 0.000935553 0.0025 0.546428 0.429296 1.9641 0.00915034 9 4 1 5.34238e-09 
1.35379 -0.673136 0.000985167 0.0025 0.546437 0.429294 1.96406 0.00915019 10 4 1 -2.37749e-09 
1.35836 -0.67314 0.00104253 0.0025 0.546446 0.429291 1.96401 0.00915004 11 4 1 4.56975e-09 
1.36294 -0.673144 0.00111383 0.0025 0.546454 0.429288 1.96397 0.0091499 12 4 1 2.6594e-09 
1.36751 -0.673149 0.00119778 0.0025 0.546461 0.429285 1.96393 0.00914979 13 4 1 3.35146e-09 
1.37209 -0.673155 0.00128651 0.0025 0.546466 0.429282 1.9639 0.0091497 14 4 1 1.88734e-09 
1.37666 -0.67316 0.0013734 0.0025 0.546471 0.429278 1.96387 0.00914962 15 4 1 -1.81356e-09 
1.38124 -0.673166 0.00146062 0.0025 0.546475 0.429275 1.96383 0.00914955 16 4 1 4.66501e-09 
1.38581 -0.673173 0.00155886 0.0025 0.546478 0.429271 1.96381 0.0091495 17 4 1 1.21568e-09 
1.39038 -0.67318 0.00167872 0.0025 0.54648 0.429267 1.96378 0.00914947 18 4 1 -1.50987e-09 
1.39496 -0.673188 0.00182147 0.0025 0.546482 0.429262 1.96375 0.00914944 19 4 1 2.33248e-09 
1.39953 -0.673197 0.00197739 0.0025 0.546483 0.429257 1.96373 0.00914942 20 4 1 7.71888e-10 
1.40411 -0.673206 0.00213385 0.0025 0.546483 0.429252 1.9637 0.00914942 21 3 1 7.87873e-10 
1.40868 -0.673215 0.00228738 0.0025 0.546482 0.429246 1.96368 0.00914943 22 4 1 6.49862e-10 
1.41326 -0.673226 0.00245052 0.0025 0.546481 0.42924 1.96366 0.00914946 23 4 1 -6.14578e-10 
1.41783 -0.673238 0.00264653 0.0025 0.546479 0.429233 1.96363 0.00914949 24 4 1 9.49167e-10 
1.42241 -0.673251 0.00289249 0.0025 0.546476 0.429226 1.96361 0.00914954 25 4 1 9.00809e-11 
1.42698 -0.673264 0.00318178 0.0025 0.546472 0.429218 1.96359 0.0091496 26 4 1 -1.10655e-09 
1.43156 -0.673279 0.0034841 0.0025 0.546467 0.429209 1.96356 0.00914968 27 4 1 4.39698e-10 
1.43613 -0.673295 0.00377172 0.0025 0.546462 0.4292 1.96354 0.00914977 28 4 1 8.792e-11 
1.44071 -0.673313 0.00405493 0.0025 0.546455 0.429189 1.96352 0.00914988 29 4 1 -1.58295e-09 
1.44528 -0.673332 0.0043894 0.0025 0.546448 0.429178 1.96349 0.00915 30 4 1 -4.79956e-10 
1.44986 -0.673354 0.00483584 0.0025 0.546439 0.429166 1.96347 0.00915015 31 4 1 6.84701e-10 
1.45443 -0.673377 0.00540399 0.0025 0.546429 0.429153 1.96344 0.00915031 32 4 1 -2.45036e-09 
1.45901 -0.673403 0.00604054 0.0025 0.546418 0.429138 1.96341 0.0091505 33 4 1 -2.62368e-09 
1.46358 -0.673431 0.00668051 0.0025 0.546405 0.429121 1.96338 0.00915072 34 4 1 2.40176e-10 
1.46816 -0.673462 0.0073136 0.0025 0.54639 0.429102 1.96335 0.00915097 35 4 1 -2.16218e-09 
1.47273 -0.673497 0.00800328 0.0025 0.546374 0.429082 1.96332 0.00915125 36 4 1 -3.05661e-09 
1.47731 -0.673536 0.0088466 0.0025 0.546355 0.42906 1.96328 0.00915156 37 4 1 -1.19211e-09 
1.48189 -0.673579 0.00991091 0.0025 0.546334 0.429035 1.96324 0.00915191 38 4 1 -3.1123e-09 
1.48646 -0.673628 0.0111954 0.0025 0.54631 0.429007 1.9632 0.00915231 39 4 1 -4.53228e-09 
1.49104 -0.673682 0.0126488 0.0025 0.546283 0.428975 1.96315 0.00915276 40 4 1 -3.59165e-09 
1.49561 -0.673742 0.0142303 0.0025 0.546252 0.428939 1.9631 0.00915328 41 4 1 -4.29683e-09 
-0.499809 -0.67381 0.0159616 0.0025 0.546217 0.428899 1.96304 0.00915387 42 4 1 -5.84781e-09 
-0.495232 -0.673887 0.0179175 0.0025 0.546177 0.428854 1.96298 0.00915454 43 4 1 -5.84294e-09 
-0.490655 -0.673973 0.020153 0.0025 0.546133 0.428803 1.96291 0.00915529 44 4 1 -5.53646e-09 
-0.486077 -0.67407 0.0226364 0.0025 0.546082 0.428746 1.96283 0.00915613 45 4 1 -7.40724e-09 
-0.481499 -0.674179 0.0253047 0.0025 0.546025 0.428683 1.96274 0.00915709 46 4 1 -8.08084e-09 
-0.47692 -0.674301 0.0281606 0.0025 0.545962 0.428612 1.96265 0.00915814 47 4 1 -6.90169e-09 
-0.47234 -0.674436 0.0311854 0.0025 0.545893 0.428534 1.96254 0.00915931 48 4 1 -6.99058e-09 
-0.46776 -0.674584 0.0342174 0.0025 0.545816 0.42845 1.96243 0.00916059 49 4 1 -6.91522e-09 
-0.46318 -0.674742 0.0369182 0.0025 0.545735 0.428359 1.9623 0.00916196 50 4 1 -4.26365e-09 
-0.458599 -0.674907 0.0384244 0.0025 0.545649 0.428264 1.96218 0.0091634 51 4 1 1.43769e-09 
-0.454016 -0.675078 0.0375746 0.0025 0.545564 0.42817 1.96205 0.00916483 52 4 1 7.59068e-09 
-0.449434 -0.675252 0.0346446 0.0025 0.545485 0.428082 1.96193 0.00916616 53 4 1 1.26004e-08 
-0.44485 -0.675417 0.0314604 0.0025 0.545416 0.428005 1.96183 0.00916731 54 4 1 1.70039e-08 
-0.440266 -0.675554 0.0267959 0.0025 0.545361 0.427945 1.96174 0.00916823 55 4 1 2.56247e-08 
-0.435682 -0.675644 0.0162466 0.0025 0.545327 0.427906 1.96169 0.00916881 56 4 1 1.55637e-08 
-0.431098 -0.675688 0.0211705 0.0025 0.545307 0.427885 1.96166 0.00916915 57 5 1 8.13014e-08 
-0.426513 -0.675704 -0.0417301 0.0025 0.545355 0.427942 1.96172 0.00916834 58 4 1 1.93759e-07 
-0.421929 -0.675278 -0.125075 0.0025 0.54556 0.428167 1.96201 0.00916489 59 4 1 2.111e-07 
-0.417348 -0.674625 -0.169319 0.0025 0.545938 0.428589 1.96255 0.00915855 60 4 1 4.10607e-07 
-0.412771 -0.673473 -0.377327 0.0025 0.546639 0.429374 1.96355 0.00914681 61 4 1 9.01967e-07 
-0.408201 -0.670942 -0.782313 0.0025 0.548001 0.430881 1.9655 0.00912407 62 4 1 1.26189e-06 
-0.403647 -0.666661 -1.17318 0.0025 0.550199 0.433296 1.96865 0.00908763 63 4 1 1.26077e-06 
-0.399114 -0.661055 -1.42066 0.0025 0.553102 0.436492 1.9728 0.00903993 64 4 1 1.21091e-06 
-0.394607 -0.65452 -1.6293 0.0025 0.556545 0.440301 1.9777 0.00898401 65 4 1 1.3835e-06 
-0.390129 -0.647066 -1.88547 0.0025 0.560521 0.444714 1.98334 0.00892028 66 4 1 1.67702e-06 
-0.385686 -0.638496 -2.17431 0.0025 0.565089 0.449798 1.98979 0.00884816 67 4 1 1.95763e-06 
-0.381281 -0.628821 -2.4714 0.0025 0.570276 0.455587 1.99707 0.00876769 68 4 1 2.14026e-06 
-0.376918 -0.61811 -2.7272 0.0025 0.576031 0.46203 2.00511 0.00868009 69 4 1 2.12012e-06 
-0.372601 -0.606703 -2.87566 0.0025 0.5822 0.468963 2.01367 0.00858811 70 4 1 1.97221e-06 
-0.36833 -0.595028 -2.94782 0.0025 0.588596 0.476183 2.02249 0.0084948 71 4 1 1.79066e-06 
-0.364106 -0.583319 -2.95316 0.0025 0.595065 0.483521 2.03135 0.00840245 72 4 1 1.64664e-06 
-0.359927 -0.571785 -2.94837 0.0025 0.601517 0.490873 2.04013 0.00831232 73 4 1 1.50318e-06 
-0.355793 -0.560476 -2.89932 0.0025 0.607891 0.498168 2.04874 0.00822516 74 4 1 1.3734e-06 
-0.351702 -0.549503 -2.85412 0.0025 0.614146 0.505357 2.05715 0.00814139 75 4 1 1.29075e-06 
-0.347652 -0.538842 -2.80644 0.0025 0.620278 0.512434 2.06534 0.00806091 76 4 1 1.22382e-06 
-0.343641 -0.528457 -2.76708 0.0025 0.626292 0.519402 2.07332 0.0079835 77 4 1 1.14667e-06 
-0.339668 -0.518369 -2.71044 0.0025 0.632185 0.526258 2.0811 0.00790907 78 4 1 1.11783e-06 
-0.335731 -0.508524 -2.69173 0.0025 0.637981 0.533026 2.08871 0.00783722 79 4 1 1.12223e-06 
-0.33183 -0.498843 -2.67466 0.0025 0.643718 0.53975 2.0962 0.00776737 80 4 1 1.1384e-06 
-0.327964 -0.489282 -2.68566 0.0025 0.649432 0.546471 2.10362 0.00769903 81 4 1 1.19768e-06 
-0.324131 -0.479765 -2.72265 0.0025 0.655177 0.553253 2.11104 0.00763152 82 4 1 1.28489e-06 
-0.320332 -0.470127 -2.79567 0.0025 0.661011 0.560163 2.11854 0.00756417 83 4 1 1.34283e-06 
-0.316567 -0.460355 -2.85865 0.0025 0.666961 0.567236 2.12614 0.00749669 84 4 1 1.3902e-06 
-0.312835 -0.450443 -2.94122 0.0025 0.67304 0.574486 2.13387 0.00742898 85 4 1 1.42027e-06 
-0.309138 -0.440394 -3.00484 0.0025 0.679246 0.581915 2.14172 0.00736111 86 4 1 1.44871e-06 
-0.305474 -0.430204 -3.08855 0.0025 0.685574 0.589518 2.14968 0.00729315 87 4 1 1.41996e-06 
-0.301844 -0.41995 -3.11438 0.0025 0.691991 0.597254 2.1577 0.00722552 88 4 1 1.35866e-06 
-0.298248 -0.409764 -3.13831 0.0025 0.698445 0.605066 2.16573 0.00715876 89 4 1 1.35962e-06 
-0.294686 -0.399541 -3.17618 0.0025 0.704936 0.612951 2.17376 0.00709285 90 4 1 1.31752e-06 
-0.291155 -0.389395 -3.17555 0.0025 0.711442 0.620885 2.18176 0.00702798 91 4 1 1.28277e-06 
-0.287657 -0.379331 -3.19461 0.0025 0.717947 0.628847 2.18971 0.0069643 92 4 1 1.27285e-06 
-0.284191 -0.369293 -3.20646 0.0025 0.724456 0.636842 2.19763 0.00690173 93 4 1 1.21923e-06 
-0.280756 -0.35941 -3.19433 0.0025 0.730946 0.644843 2.20549 0.00684045 94 4 1 1.20837e-06 
-0.27735 -0.349581 -3.21612 0.0025 0.737423 0.652856 2.21328 0.00678037 95 4 1 1.1765e-06 
-0.273975 -0.33986 -3.19832 0.0025 0.743883 0.660876 2.22101 0.00672149 96 4 1 1.16485e-06 
-0.270629 -0.330256 -3.22478 0.0025 0.75033 0.668909 2.22869 0.00666374 97 4 1 1.17108e-06 
-0.267311 -0.320656 -3.23483 0.0025 0.756782 0.676975 2.23634 0.00660692 98 4 1 1.10187e-06 
-0.264022 -0.311215 -3.20969 0.0025 0.763206 0.685033 2.24391 0.00655131 99 4 1 1.10228e-06 
-0.26076 -0.30183 -3.2398 0.0025 0.769613 0.693099 2.25143 0.00649677 100 4 1 1.10251e-06 
-0.257525 -0.292488 -3.23887 0.0025 0.77602 0.701187 2.25891 0.00644313 101 4 1 1.02515e-06 
-0.254316 -0.283308 -3.20564 0.0025 0.782385 0.709253 2.2663 0.00639072 102 4 1 1.05318e-06 
-0.251134 -0.274214 -3.25301 0.0025 0.788741 0.717335 2.27364 0.00633922 103 4 1 1.08251e-06 
-0.247977 -0.265061 -3.27097 0.0025 0.795124 0.725471 2.28099 0.00628833 104 4 1 9.70985e-07 
-0.244846 -0.2561 -3.21167 0.0025 0.801462 0.73358 2.28824 0.0062386 105 4 1 9.84161e-07 
-0.241738 -0.247229 -3.26112 0.0025 0.807775 0.741686 2.29543 0.00618984 106 4 1 1.04425e-06 
-0.238656 -0.238326 -3.29231 0.0025 0.814123 0.749855 2.30263 0.00614158 107 4 1 9.22626e-07 
-0.235597 -0.229533 -3.22105 0.0025 0.820427 0.757994 2.30975 0.00609439 108 4 1 8.8558e-07 
-0.232561 -0.220975 -3.22801 0.0025 0.82667 0.766088 2.31676 0.00604836 109 4 1 1.01698e-06 
-0.229548 -0.212304 -3.32579 0.0025 0.832965 0.774265 2.3238 0.00600265 110 4 1 9.32605e-07 
-0.226558 -0.203672 -3.25296 0.0025 0.839261 0.782466 2.33081 0.00595762 111 4 1 8.23642e-07 
-0.223591 -0.195264 -3.2317 0.0025 0.845479 0.790597 2.3377 0.00591381 112 4 1 9.14343e-07 
-0.220644 -0.186889 -3.29049 0.0025 0.851705 0.798762 2.34457 0.00587058 113 4 1 9.60624e-07 
-0.21772 -0.178415 -3.33802 0.0025 0.857982 0.807011 2.35147 0.00582763 114 4 1 8.02236e-07 
-0.214817 -0.170088 -3.22422 0.0025 0.864197 0.815203 2.35827 0.00578572 115 4 1 7.20431e-07 
-0.211934 -0.162089 -3.19441 0.0025 0.870302 0.823286 2.36491 0.00574513 116 4 1 9.46342e-07 
-0.209072 -0.153932 -3.37116 0.0025 0.876486 0.831489 2.37162 0.00570459 117 4 1 9.37807e-07 
-0.206229 -0.145629 -3.34144 0.0025 0.88275 0.839808 2.37839 0.00566412 118 4 1 6.32225e-07 
-0.203407 -0.137699 -3.15242 0.0025 0.888859 0.847957 2.38496 0.00562519 119 4 1 7.30521e-07 
-0.200604 -0.129978 -3.26493 0.0025 0.894903 0.856054 2.39143 0.00558719 120 4 1 1.02828e-06 
-0.19782 -0.121858 -3.46516 0.0025 0.901131 0.864399 2.39808 0.00554858 121 4 1 7.74367e-07 
-0.195056 -0.113779 -3.26895 0.0025 0.907342 0.872737 2.40468 0.0055106 122 4 1 4.45095e-07 
-0.192309 -0.106312 -3.07172 0.0025 0.913282 0.880756 2.41095 0.00547476 123 4 1 7.65625e-07 
-0.189581 -0.0988666 -3.31459 0.0025 0.919231 0.888812 2.41722 0.00543933 124 4 1 1.02098e-06 
-0.18687 -0.0909125 -3.45932 0.0025 0.925413 0.897178 2.42372 0.005403 125 4 1 6.49744e-07 
-0.184178 -0.0831913 -3.21662 0.0025 0.93152 0.905468 2.4301 0.00536757 126 4 1 4.36516e-07 
-0.181502 -0.0760116 -3.10029 0.0025 0.937382 0.913469 2.4362 0.005334 127 4 1 8.06462e-07 
-0.178844 -0.0686656 -3.37573 0.0025 0.943323 0.921591 2.44237 0.00530041 128 4 1 8.90579e-07 
-0.176202 -0.0609686 -3.38671 0.0025 0.949428 0.929936 2.44868 0.00526633 129 4 1 4.84447e-07 
-0.173577 -0.0536814 -3.12551 0.0025 0.955363 0.938082 2.45479 0.00523361 130 4 1 5.03939e-07 
-0.170968 -0.0467313 -3.18911 0.0025 0.961143 0.946052 2.46071 0.00520214 131 4 1 8.39366e-07 
-0.168375 -0.0393976 -3.42219 0.0025 0.967055 0.954198 2.46677 0.00517034 132 4 1 3.87011e-07 
-0.165798 -0.0323278 -2.9215 0.0025 0.972764 0.962071 2.47258 0.00513999 133 4 1 -3.85451e-08 
-0.163235 -0.0264079 -2.5876 0.0025 0.97797 0.969326 2.47783 0.00511263 134 4 1 1.20414e-06 
-0.160685 -0.0197642 -3.76536 0.0025 0.983705 0.977332 2.48365 0.00508282 135 4 1 1.83687e-06 
-0.158152 -0.0109401 -4.26063 0.0025 0.990396 0.986564 2.49046 0.00504849 136 4 1 -8.79123e-07 
-0.155637 -0.00409647 -1.87207 0.0025 0.995802 0.99404 2.49587 0.00502108 137 4 1 -1.87455e-06 
-0.153131 -0.00152287 -0.963058 0.0025 0.999107 0.9988 2.49906 0.00500447 138 4 1 1.98464e-06 
-0.150632 0.0035877 -4.16271 0.0025 1.0038 1.00546 2.50379 0.00498108 139 4 1 3.18014e-06 
-0.14815 0.0136372 -4.85877 0.0025 1.01083 1.01515 2.51093 0.00494641 140 4 1 -1.98435e-06 
-0.145686 0.0196998 -0.966349 0.0025 1.01567 1.02187 2.5157 0.00492284 141 4 1 -3.15582e-06 
-0.143227 0.0197787 0.343701 0.0025 1.01706 1.02399 2.51695 0.00491614 142 4 1 1.04273e-06 
-0.14077 0.0221264 -2.4589 0.0025 1.01909 1.02688 2.519 0.00490635 143 4 1 8.47741e-07 
-0.138321 0.0265198 -1.33412 0.0025 1.02189 1.0307 2.52183 0.00489292 144 4 1 -1.95566e-06 
-0.135877 0.0271587 0.196753 0.0025 1.02264 1.03177 2.52254 0.00488931 145 3 1 -1.41136e-06 
-0.133431 0.0260145 0.72716 0.0025 1.02164 1.03042 2.52155 0.00489407 146 4 1 -5.40141e-07 
-0.130983 0.024079 1.02539 0.0025 1.01995 1.02804 2.51986 0.00490219 147 4 1 -2.23724e-07 
-0.128529 0.0217293 1.183 0.0025 1.01792 1.02519 2.51785 0.00491196 148 4 1 -4.72593e-08 
-0.126071 0.0191809 1.25212 0.0025 1.01575 1.02213 2.5157 0.00492247 149 4 1 6.88394e-08 
-0.123607 0.0165846 1.25421 0.0025 1.01356 1.01905 2.51352 0.00493311 150 4 1 1.46225e-07 
-0.121138 0.0140518 1.20761 0.0025 1.01144 1.01606 2.51141 0.00494344 151 4 1 1.96277e-07 
-0.118663 0.0116647 1.12514 0.0025 1.00946 1.01328 2.50944 0.00495315 152 4 1 2.25128e-07 
-0.116184 0.00948264 1.01765 0.0025 1.00766 1.01075 2.50764 0.004962 153 4 1 2.37187e-07 
-0.113701 0.00754469 0.894579 0.0025 1.00607 1.00852 2.50606 0.00496983 154 4 1 2.35742e-07 
-0.111215 0.00587164 0.764533 0.0025 1.00471 1.00661 2.5047 0.00497657 155 4 1 2.2365e-07 
-0.108725 0.00446754 0.635214 0.0025 1.00357 1.00501 2.50356 0.00498221 156 4 1 2.0371e-07 
-0.106232 0.00332203 0.513073 0.0025 1.00265 1.00372 2.50264 0.0049868 157 4 1 1.78735e-07 
-0.103738 0.0024135 0.402916 0.0025 1.00192 1.00269 2.50191 0.00499042 158 4 1 1.51402e-07 
-0.101242 0.00171283 0.307698 0.0025 1.00136 1.00191 2.50136 0.00499322 159 4 1 1.24029e-07 
-0.0987447 0.00118723 0.228583 0.0025 1.00094 1.00132 2.50094 0.00499531 160 4 1 9.83982e-08 
-0.0962466 0.000803588 0.165241 0.0025 1.00064 1.00089 2.50063 0.00499683 161 4 1 7.56866e-08 
-0.0937479 0.000531029 0.116273 0.0025 1.00042 1.00059 2.50042 0.00499791 162 4 1 5.64956e-08 
-0.0912487 0.000342497 0.0796546 0.0025 1.00027 1.00038 2.50027 0.00499865 163 4 1 4.09522e-08 
-0.0887492 0.000215511 0.0531315 0.0025 1.00017 1.00024 2.50017 0.00499915 164 4 1 2.88418e-08 
-0.0862495 0.000132224 0.0345034 0.0025 1.0001 1.00015 2.5001 0.00499948 165 4 1 1.97414e-08 
-0.0837497 7.9041e-05 0.0218083 0.0025 1.00006 1.00009 2.50006 0.00499969 166 4 1 1.31338e-08 
-0.0812499 4.59918e-05 0.0134096 0.0025 1.00004 1.00005 2.50004 0.00499982 167 4 1 8.49192e-09 
-0.0787499 2.6017e-05 0.00801529 0.0025 1.00002 1.00003 2.50002 0.0049999 168 4 1 5.33439e-09 
-0.07625 1.42859e-05 0.00465243 0.0025 1.00001 1.00002 2.50001 0.00499994 169 4 1 3.25364e-09 
-0.07375 7.59917e-06 0.00261873 0.0025 1.00001 1.00001 2.50001 0.00499997 170 4 1 1.92521e-09 
-0.07125 3.90598e-06 0.00142677 0.0025 1 1 2.5 0.00499998 171 4 1 1.10377e-09 
-0.06875 1.93358e-06 0.000750627 0.0025 1 1 2.5 0.00499999 172 4 1 6.12136e-10 
-0.06625 9.17829e-07 0.000380112 0.0025 1 1 2.5 0.005 173 4 1 3.27658e-10 
-0.06375 4.1526e-07 0.000184479 0.0025 1 1 2.5 0.005 174 4 1 1.68775e-10 
-0.06125 1.77555e-07 8.52974e-05 0.0025 1 1 2.5 0.005 175 4 1 8.33218e-11 
-0.05875 7.08334e-08 3.72489e-05 0.0025 1 1 2.5 0.005 176 4 1 3.92043e-11 
-0.05625 2.58248e-08 1.51592e-05 0.0025 1 1 2.5 0.005 177 4 1 1.74386e-11 
-0.05375 8.28805e-09 5.62212e-06 0.0025 1 1 2.5 0.005 178 4 1 7.2414e-12 
-0.05125 2.1595e-09 1.81922e-06 0.0025 1 1 2.5 0.005 179 4 1 2.74713e-12 
-0.04875 3.51899e-10 4.60015e-07 0.0025 1 1 2.5 0.005 180 4 1 9.25491e-13 
-0.04625 -2.60336e-11 4.43226e-08 0.0025 1 1 2.5 0.005 181 4 1 2.52784e-13 
-0.04375 1.99634e-11 -4.83543e-08 0.0025 1 1 2.5 0.005 182 5 1 1.55481e-14 
-0.04125 5.46911e-11 -2.4956e-09 0.0025 1 1 2.5 0.005 183 3 1 -2.60354e-14 
-0.03875 4.43883e-11 8.27788e-09 0.0025 1 1 2.5 0.005 184 4 1 -3.98117e-15 
-0.03625 2.73132e-11 8.28948e-09 0.0025 1 1 2.5 0.005 185 4 1 2.55227e-15 
-0.03375 1.42388e-11 5.5353e-09 0.0025 1 1 2.5 0.005 186 4 1 3.33813e-15 
-0.03125 6.48124e-12 3.03129e-09 0.0025 1 1 2.5 0.005 187 4 1 2.45031e-15 
-0.02875 2.57122e-12 1.42745e-09 0.0025 1 1 2.5 0.005 188 4 1 1.33511e-15 
-0.02625 8.63695e-13 5.7787e-10 0.0025 1 1 2.5 0.005 189 4 1 6.6791e-16 
-0.02375 2.26153e-13 1.98554e-10 0.0025 1 1 2.5 0.005 190 4 1 2.77467e-16 
-0.02125 3.12341e-14 5.05338e-11 0.0025 1 1 2.5 0.005 191 4 1 1.02318e-16 
-0.01875 -6.86427e-15 -1.59162e-12 0.0025 1 1 2.5 0.005 192 5 1 2.66454e-17 
-0.01625 6.47756e-16 -3.41061e-12 0.0025 1 1 2.5 0.005 193 4 1 -1.10134e-17 
-0.01375 6.2485e-15 -9.09495e-13 0.0025 1 1 2.5 0.005 194 3 1 7.4607e-18 
-0.01125 4.06039e-15 1.53477e-12 0.0025 1 1 2.5 0.005 195 4 1 -6.03961e-18 
-0.00875 2.10855e-15 1.13687e-13 0.0025 1 1 2.5 0.005 196 4 1 2.13163e-18 
-0.00625 1.56162e-15 3.41061e-13 0.0025 1 1 2.5 0.005 197 4 1 -7.10543e-19 
-0.00375 2.48484e-16 3.41061e-13 0.0025 1 1 2.5 0.005 198 4 1 -7.10543e-19 
-0.00125 6.78266e-16 -1.7053e-13 0.0025 1 1 2.5 0.005 199 5 1 -1.42109e-18 
0.00125 7.94062e-16 -1.68156e-44 0.0025 1 1 2.5 0.005 200 5 1 -1.42109e-18 
0.00375 7.29976e-16 -2.76101e-28 0.0025 1 1 2.5 0.005 201 5 1 -1.42109e-18 
0.00625 2.76071e-16 -3.41061e-13 0.0025 1 1 2.5 0.005 202 4 1 -3.55271e-19 
0.00875 1.10435e-15 2.27374e-13 0.0025 1 1 2.5 0.005 203 3 1 0 
0.01125 9.72916e-16 -2.84217e-13 0.0025 1 1 2.5 0.005 204 4 1 2.4869e-18 
0.01375 4.83012e-16 6.25278e-13 0.0025 1 1 2.5 0.005 205 4 1 -6.03961e-18 
0.01625 5.31358e-15 4.54747e-12 0.0025 1 1 2.5 0.005 206 5 1 -7.10543e-19 
0.01875 1.03249e-14 -2.04636e-12 0.0025 1 1 2.5 0.005 207 4 1 2.70006e-17 
0.02125 -2.39683e-14 -4.8999e-11 0.0025 1 1 2.5 0.005 208 4 1 9.45022e-17 
0.02375 -2.20005e-13 -1.96223e-10 0.0025 1 1 2.5 0.005 209 4 1 2.96296e-16 
0.02625 -8.57272e-13 -5.80087e-10 0.0025 1 1 2.5 0.005 210 4 1 6.38423e-16 
0.02875 -2.56425e-12 -1.42478e-09 0.0025 1 1 2.5 0.005 211 4 1 1.3813e-15 
0.03125 -6.47003e-12 -3.03061e-09 0.0025 1 1 2.5 0.005 212 4 1 2.42331e-15 
0.03375 -1.42371e-11 -5.53501e-09 0.0025 1 1 2.5 0.005 213 4 1 3.32818e-15 
0.03625 -2.73028e-11 -8.28993e-09 0.0025 1 1 2.5 0.005 214 4 1 2.55831e-15 
0.03875 -4.43814e-11 -8.28044e-09 0.0025 1 1 2.5 0.005 215 4 1 -3.96945e-15 
0.04125 -5.46849e-11 2.501e-09 0.0025 1 1 2.5 0.005 216 3 1 -2.60417e-14 
0.04375 -1.9953e-11 4.83502e-08 0.0025 1 1 2.5 0.005 217 5 1 1.55463e-14 
0.04625 2.60382e-11 -4.4323e-08 0.0025 1 1 2.5 0.005 218 4 1 2.52797e-13 
0.04875 -3.51899e-10 -4.60017e-07 0.0025 1 1 2.5 0.005 219 4 1 9.25487e-13 
0.05125 -2.1595e-09 -1.81922e-06 0.0025 1 1 2.5 0.005 220 4 1 2.74713e-12 
0.05375 -8.28805e-09 -5.62212e-06 0.0025 1 1 2.5 0.005 221 4 1 7.2414e-12 
0.05625 -2.58248e-08 -1.51592e-05 0.0025 1 1 2.5 0.005 222 4 1 1.74386e-11 
