# Time [s]: 0.283842
# Columns: pos [m], vel [m/s], acc [m/s^2], mass [kg], dens [kg/m^3], pres [Pa], ene [J/kg], sml [m], id, neighbor, alpha, gradh, ...additional?
1.31117 -0.67311 0.000489986 0.0025 0.511044 0.432719 2.15249 0.00978389 0 4 1 -0.000134226 
1.31595 -0.673113 0.000564834 0.0025 0.5369 0.426181 1.95003 0.00931271 1 4 1 0.000179251 
1.32049 -0.673115 0.000632517 0.0025 0.548229 0.43085 1.96849 0.00912027 2 3 1 -1.90587e-05 
1.32507 -0.673118 0.000693246 0.0025 0.545963 0.429184 1.96463 0.00915813 3 5 1 3.48579e-06 
1.32965 -0.67312 0.000744532 0.0025 0.54636 0.429338 1.96456 0.00915148 4 4 1 -1.38811e-07 
1.33423 -0.673123 0.000789947 0.0025 0.546369 0.429307 1.96433 0.00915132 5 4 1 1.43603e-07 
1.3388 -0.673126 0.000836906 0.0025 0.546391 0.429304 1.96427 0.00915096 6 4 1 -3.64262e-09 
1.34338 -0.673129 0.000891698 0.0025 0.546403 0.429299 1.96421 0.00915076 7 4 1 8.08496e-09 
1.34795 -0.673133 0.000954513 0.0025 0.546415 0.429296 1.96415 0.00915056 8 4 1 4.59807e-09 
1.35253 -0.673137 0.00101953 0.0025 0.546425 0.429294 1.9641 0.00915038 9 4 1 5.30523e-09 
1.3571 -0.673141 0.00108107 0.0025 0.546435 0.429291 1.96406 0.00915023 10 4 1 -2.40561e-09 
1.36168 -0.673145 0.0011406 0.0025 0.546443 0.429288 1.96401 0.00915008 11 4 1 4.56143e-09 
1.36625 -0.67315 0.00120727 0.0025 0.546451 0.429285 1.96397 0.00914995 12 4 1 2.66273e-09 
1.37083 -0.673155 0.00129041 0.0025 0.546457 0.429282 1.96393 0.00914984 13 4 1 3.34451e-09 
1.3754 -0.673161 0.00139054 0.0025 0.546463 0.429278 1.9639 0.00914976 14 4 1 1.85461e-09 
1.37998 -0.673167 0.00149846 0.0025 0.546467 0.429274 1.96386 0.00914969 15 4 1 -1.86485e-09 
1.38455 -0.673174 0.00160434 0.0025 0.546471 0.42927 1.96383 0.00914962 16 4 1 4.61987e-09 
1.38913 -0.673181 0.00170866 0.0025 0.546473 0.429266 1.9638 0.00914958 17 4 1 1.19572e-09 
1.3937 -0.673189 0.00182392 0.0025 0.546475 0.429261 1.96377 0.00914954 18 4 1 -1.5111e-09 
1.39828 -0.673198 0.00196494 0.0025 0.546477 0.429256 1.96374 0.00914952 19 4 1 2.32074e-09 
1.40285 -0.673207 0.00213625 0.0025 0.546477 0.429251 1.96372 0.00914951 20 3 1 7.21157e-10 
1.40743 -0.673217 0.00232783 0.0025 0.546477 0.429245 1.96369 0.00914952 21 4 1 6.95453e-10 
1.412 -0.673227 0.0025234 0.0025 0.546476 0.429239 1.96367 0.00914954 22 4 1 5.4543e-10 
1.41658 -0.673239 0.00271513 0.0025 0.546474 0.429232 1.96365 0.00914957 23 4 1 -6.88426e-10 
1.42115 -0.673252 0.00291437 0.0025 0.546471 0.429225 1.96362 0.00914962 24 4 1 9.2571e-10 
1.42573 -0.673265 0.00314908 0.0025 0.546468 0.429217 1.9636 0.00914967 25 4 1 8.6056e-11 
1.4303 -0.673281 0.00344568 0.0025 0.546463 0.429208 1.96357 0.00914975 26 4 1 -1.16379e-09 
1.43488 -0.673297 0.00380497 0.0025 0.546458 0.429199 1.96355 0.00914984 27 4 1 2.71685e-10 
1.43945 -0.673315 0.00419383 0.0025 0.546451 0.429188 1.96352 0.00914995 28 4 1 -1.65756e-10 
1.44403 -0.673334 0.00457108 0.0025 0.546444 0.429177 1.9635 0.00915007 29 4 1 -1.81028e-09 
1.4486 -0.673355 0.00493581 0.0025 0.546435 0.429164 1.96347 0.00915022 30 4 1 -5.77209e-10 
1.45318 -0.673379 0.00535087 0.0025 0.546425 0.429151 1.96345 0.00915038 31 4 1 6.92151e-10 
1.45775 -0.673405 0.00590216 0.0025 0.546414 0.429136 1.96342 0.00915057 32 4 1 -2.50267e-09 
1.46233 -0.673434 0.0066207 0.0025 0.546401 0.429119 1.96339 0.00915078 33 4 1 -2.89884e-09 
1.4669 -0.673466 0.00745029 0.0025 0.546387 0.429101 1.96336 0.00915103 34 4 1 -2.62873e-10 
1.47148 -0.6735 0.00830438 0.0025 0.54637 0.42908 1.96332 0.00915131 35 4 1 -2.73262e-09 
1.47605 -0.673539 0.00915639 0.0025 0.546351 0.429057 1.96329 0.00915163 36 4 1 -3.51245e-09 
1.48063 -0.673582 0.0100747 0.0025 0.546329 0.429031 1.96324 0.00915199 37 4 1 -1.48235e-09 
1.4852 -0.673631 0.01118 0.0025 0.546305 0.429003 1.9632 0.00915239 38 4 1 -3.35796e-09 
1.48978 -0.673686 0.0125678 0.0025 0.546278 0.428971 1.96315 0.00915285 39 4 1 -4.93467e-09 
1.49436 -0.673748 0.0142502 0.0025 0.546247 0.428935 1.9631 0.00915336 40 4 1 -4.2707e-09 
1.49893 -0.673817 0.0161641 0.0025 0.546212 0.428895 1.96304 0.00915395 41 4 1 -5.18926e-09 
-0.496489 -0.673894 0.018243 0.0025 0.546172 0.428849 1.96298 0.00915463 42 4 1 -6.75761e-09 
-0.491911 -0.673981 0.0204862 0.0025 0.546126 0.428798 1.96291 0.00915539 43 4 1 -6.60816e-09 
-0.487333 -0.674079 0.0229656 0.0025 0.546075 0.42874 1.96283 0.00915625 44 4 1 -6.16924e-09 
-0.482755 -0.674189 0.0257392 0.0025 0.546017 0.428675 1.96274 0.00915722 45 4 1 -7.97956e-09 
-0.478176 -0.674312 0.0287099 0.0025 0.545953 0.428604 1.96264 0.00915829 46 4 1 -8.3826e-09 
-0.473597 -0.674448 0.0316622 0.0025 0.545882 0.428524 1.96253 0.00915948 47 4 1 -6.47013e-09 
-0.469017 -0.674598 0.0344784 0.0025 0.545805 0.428438 1.96242 0.00916078 48 4 1 -5.55889e-09 
-0.464436 -0.674759 0.0370078 0.0025 0.545723 0.428347 1.96229 0.00916216 49 4 1 -4.36041e-09 
-0.459854 -0.674929 0.0388279 0.0025 0.545637 0.428251 1.96216 0.0091636 50 4 1 -7.42599e-10 
-0.455272 -0.675101 0.0395922 0.0025 0.54555 0.428155 1.96203 0.00916506 51 4 1 4.88105e-09 
-0.450689 -0.675267 0.0383928 0.0025 0.545466 0.428063 1.96191 0.00916647 52 4 1 1.13546e-08 
-0.446106 -0.67542 0.0335436 0.0025 0.545392 0.42798 1.9618 0.00916772 53 4 1 2.15874e-08 
-0.441522 -0.675554 0.0238903 0.0025 0.545336 0.427918 1.96171 0.00916867 54 4 1 3.31198e-08 
-0.436937 -0.675654 0.0116763 0.0025 0.545306 0.427884 1.96166 0.00916916 55 4 1 1.9972e-08 
-0.432352 -0.675717 0.0230209 0.0025 0.545294 0.427873 1.96164 0.00916936 56 5 1 9.19888e-08 
-0.427768 -0.675688 -0.0563688 0.0025 0.545359 0.427947 1.96173 0.00916828 57 4 1 1.94902e-07 
-0.423184 -0.675223 -0.127494 0.0025 0.545582 0.428192 1.96205 0.00916452 58 4 1 2.14561e-07 
-0.418603 -0.674579 -0.176924 0.0025 0.545981 0.428639 1.96262 0.00915783 59 4 1 4.78129e-07 
-0.414026 -0.673289 -0.429935 0.0025 0.546752 0.429503 1.96372 0.00914491 60 4 1 9.99148e-07 
-0.409458 -0.670478 -0.858205 0.0025 0.548248 0.431154 1.96586 0.00911996 61 4 1 1.29046e-06 
-0.404906 -0.665928 -1.22341 0.0025 0.55058 0.433716 1.9692 0.00908133 62 4 1 1.24423e-06 
-0.400377 -0.660135 -1.45368 0.0025 0.553583 0.437025 1.97349 0.00903207 63 4 1 1.24557e-06 
-0.395874 -0.653438 -1.67927 0.0025 0.557127 0.440948 1.97853 0.00897462 64 4 1 1.47358e-06 
-0.391402 -0.645739 -1.95455 0.0025 0.561237 0.445512 1.98435 0.00890889 65 4 1 1.79274e-06 
-0.386965 -0.636856 -2.26354 0.0025 0.565977 0.45079 1.99104 0.00883429 66 4 1 2.07299e-06 
-0.382568 -0.626826 -2.56644 0.0025 0.571358 0.456798 1.99859 0.00875109 67 4 1 2.22019e-06 
-0.378214 -0.615756 -2.81157 0.0025 0.577301 0.463457 2.00688 0.00866099 68 4 1 2.15956e-06 
-0.373906 -0.604079 -2.94217 0.0025 0.583631 0.470576 2.01565 0.00856706 69 4 1 1.98933e-06 
-0.369646 -0.592199 -2.99924 0.0025 0.590152 0.477947 2.02463 0.00847239 70 4 1 1.81247e-06 
-0.365434 -0.580335 -3.00206 0.0025 0.596726 0.485412 2.03362 0.00837905 71 4 1 1.66232e-06 
-0.361267 -0.568681 -2.98601 0.0025 0.603266 0.492872 2.0425 0.00828821 72 4 1 1.50561e-06 
-0.357145 -0.557276 -2.92889 0.0025 0.609709 0.500254 2.05119 0.00820064 73 4 1 1.38497e-06 
-0.353066 -0.546235 -2.88466 0.0025 0.616022 0.507521 2.05966 0.00811659 74 4 1 1.3056e-06 
-0.349028 -0.535488 -2.83437 0.0025 0.62221 0.514671 2.06791 0.00803587 75 4 1 1.23105e-06 
-0.34503 -0.525039 -2.79004 0.0025 0.628274 0.521705 2.07594 0.00795832 76 4 1 1.16495e-06 
-0.34107 -0.514902 -2.73961 0.0025 0.634218 0.52863 2.08378 0.00788372 77 4 1 1.15298e-06 
-0.337146 -0.504982 -2.7283 0.0025 0.640077 0.53548 2.09145 0.00781156 78 4 1 1.15644e-06 
-0.333258 -0.495216 -2.71194 0.0025 0.645887 0.542298 2.09902 0.0077413 79 4 1 1.18474e-06 
-0.329405 -0.48554 -2.73519 0.0025 0.651688 0.549132 2.10654 0.00767238 80 4 1 1.27117e-06 
-0.325586 -0.475833 -2.79063 0.0025 0.657548 0.55606 2.11409 0.007604 81 4 1 1.36235e-06 
-0.321801 -0.465974 -2.87174 0.0025 0.663523 0.563147 2.12176 0.00753554 82 4 1 1.41473e-06 
-0.31805 -0.456001 -2.9415 0.0025 0.669629 0.570415 2.12954 0.00746682 83 4 1 1.45613e-06 
-0.314334 -0.445865 -3.02532 0.0025 0.67587 0.577872 2.13746 0.00739787 84 4 1 1.48408e-06 
-0.310652 -0.43558 -3.09474 0.0025 0.682242 0.585512 2.1455 0.00732878 85 4 1 1.48808e-06 
-0.307005 -0.425166 -3.16139 0.0025 0.688726 0.593314 2.15363 0.00725979 86 4 1 1.42708e-06 
-0.303392 -0.414765 -3.16956 0.0025 0.695268 0.601218 2.16179 0.00719147 87 4 1 1.40196e-06 
-0.299813 -0.404392 -3.21547 0.0025 0.701846 0.609196 2.16994 0.00712407 88 4 1 1.39669e-06 
-0.296268 -0.394009 -3.23422 0.0025 0.708462 0.617249 2.1781 0.00705754 89 4 1 1.34072e-06 
-0.292755 -0.383756 -3.23984 0.0025 0.715082 0.625338 2.18622 0.0069922 90 4 1 1.32625e-06 
-0.289275 -0.373535 -3.26312 0.0025 0.721707 0.633462 2.19429 0.00692802 91 4 1 1.28358e-06 
-0.285827 -0.363401 -3.25284 0.0025 0.728321 0.641603 2.20231 0.00686511 92 4 1 1.2473e-06 
-0.28241 -0.35341 -3.26153 0.0025 0.734913 0.649748 2.21027 0.00680353 93 4 1 1.23374e-06 
-0.279024 -0.343453 -3.26349 0.0025 0.741491 0.657904 2.21816 0.00674317 94 4 1 1.2013e-06 
-0.275667 -0.333652 -3.26268 0.0025 0.74805 0.666067 2.22598 0.00668404 95 4 1 1.21273e-06 
-0.272339 -0.323878 -3.29454 0.0025 0.754611 0.674259 2.23377 0.00662593 96 4 1 1.16334e-06 
-0.269041 -0.314195 -3.26658 0.0025 0.761156 0.682458 2.2415 0.00656896 97 4 1 1.13742e-06 
-0.26577 -0.30466 -3.28904 0.0025 0.767676 0.690659 2.24916 0.00651316 98 4 1 1.15077e-06 
-0.262527 -0.295129 -3.30038 0.0025 0.774199 0.698886 2.25679 0.00645829 99 4 1 1.0793e-06 
-0.259312 -0.285757 -3.2682 0.0025 0.780688 0.707101 2.26433 0.0064046 100 4 1 1.07413e-06 
-0.256123 -0.276493 -3.29284 0.0025 0.787153 0.715315 2.27181 0.006352 101 4 1 1.121e-06 
-0.25296 -0.267186 -3.33162 0.0025 0.793642 0.723581 2.27929 0.00630007 102 4 1 1.02726e-06 
-0.249823 -0.258009 -3.27375 0.0025 0.800101 0.731837 2.28669 0.00624921 103 4 1 1.00954e-06 
-0.24671 -0.249003 -3.30764 0.0025 0.806525 0.74008 2.29401 0.00619943 104 4 1 1.07548e-06 
-0.243623 -0.239916 -3.34739 0.0025 0.812979 0.748381 2.30134 0.00615022 105 4 1 9.73859e-07 
-0.24056 -0.230972 -3.28584 0.0025 0.819398 0.756665 2.30859 0.00610204 106 4 1 9.11929e-07 
-0.237521 -0.222225 -3.27459 0.0025 0.825752 0.764897 2.31573 0.00605509 107 4 1 1.04162e-06 
-0.234505 -0.213423 -3.3798 0.0025 0.83215 0.773205 2.32289 0.00600853 108 4 1 9.80291e-07 
-0.231512 -0.204611 -3.31628 0.0025 0.838558 0.781549 2.33003 0.00596262 109 4 1 8.48327e-07 
-0.228542 -0.196082 -3.2773 0.0025 0.844884 0.789819 2.33704 0.00591797 110 4 1 9.57921e-07 
-0.225594 -0.187521 -3.36557 0.0025 0.851224 0.798132 2.34404 0.00587389 111 4 1 9.90332e-07 
-0.222668 -0.178917 -3.38359 0.0025 0.857615 0.806527 2.35107 0.00583012 112 4 1 8.09107e-07 
-0.219764 -0.170472 -3.26993 0.0025 0.863924 0.814844 2.35797 0.00578755 113 4 1 7.70008e-07 
-0.216881 -0.162316 -3.26635 0.0025 0.870139 0.823072 2.36474 0.00574621 114 4 1 9.94156e-07 
-0.214018 -0.153985 -3.43947 0.0025 0.876447 0.831436 2.37158 0.00570485 115 4 1 9.20123e-07 
-0.211176 -0.145544 -3.35909 0.0025 0.882798 0.839872 2.37845 0.00566381 116 4 1 6.45788e-07 
-0.208354 -0.137549 -3.2055 0.0025 0.888985 0.84813 2.38509 0.00562439 117 4 1 8.28948e-07 
-0.205551 -0.129626 -3.37165 0.0025 0.895165 0.856406 2.39171 0.00558556 118 4 1 1.05707e-06 
-0.202768 -0.121302 -3.51881 0.0025 0.901527 0.864928 2.3985 0.00554614 119 4 1 7.00406e-07 
-0.200005 -0.113211 -3.25162 0.0025 0.907793 0.873344 2.40516 0.00550786 120 4 1 4.90468e-07 
-0.19726 -0.105706 -3.15397 0.0025 0.913805 0.881468 2.4115 0.00547163 121 4 1 9.0855e-07 
-0.194533 -0.0979787 -3.45035 0.0025 0.919924 0.88975 2.41795 0.00543523 122 4 1 9.99023e-07 
-0.191825 -0.0898521 -3.47778 0.0025 0.926234 0.898288 2.42458 0.0053982 123 4 1 5.35166e-07 
-0.189135 -0.0821834 -3.17536 0.0025 0.932356 0.906608 2.43097 0.00536276 124 4 1 5.41598e-07 
-0.186462 -0.0748917 -3.23323 0.0025 0.938303 0.914731 2.43716 0.00532877 125 4 1 9.41024e-07 
-0.183806 -0.0672526 -3.48562 0.0025 0.944425 0.923094 2.44351 0.00529423 126 4 1 7.85712e-07 
-0.181168 -0.0594733 -3.34866 0.0025 0.950606 0.931549 2.4499 0.0052598 127 4 1 4.54402e-07 
-0.178546 -0.0522496 -3.16867 0.0025 0.956571 0.93975 2.45603 0.005227 128 4 1 6.91986e-07 
-0.175941 -0.045024 -3.3841 0.0025 0.962513 0.947939 2.46212 0.00519473 129 4 1 7.27418e-07 
-0.173352 -0.0375709 -3.30399 0.0025 0.968487 0.956163 2.46824 0.00516269 130 4 1 8.72666e-08 
-0.170778 -0.0309427 -2.69381 0.0025 0.974021 0.963825 2.47384 0.00513336 131 4 1 4.73151e-07 
-0.168218 -0.0248302 -3.13089 0.0025 0.97947 0.971436 2.47935 0.0051048 132 4 1 1.8517e-06 
-0.165673 -0.0167928 -4.35184 0.0025 0.985909 0.980367 2.48591 0.00507146 133 4 1 6.97241e-07 
-0.163147 -0.00823276 -3.29114 0.0025 0.992337 0.989217 2.49242 0.00503861 134 4 1 -1.94721e-06 
-0.160635 -0.00377129 -0.95146 0.0025 0.996577 0.995177 2.49658 0.00501718 135 4 1 -1.27365e-07 
-0.15813 -0.000629727 -2.51371 0.0025 1.0003 1.00055 2.50026 0.00499848 136 4 1 3.58691e-06 
-0.155636 0.00786698 -5.37268 0.0025 1.00672 1.00948 2.50678 0.00496664 137 4 1 7.0154e-07 
-0.153163 0.0171204 -2.97973 0.0025 1.01331 1.01855 2.51341 0.00493432 138 4 1 -3.71667e-06 
-0.150702 0.0194786 0.448362 0.0025 1.01604 1.02246 2.51598 0.00492105 139 4 1 -9.12982e-07 
-0.148242 0.01961 -1.26709 0.0025 1.01741 1.02455 2.5173 0.00491444 140 4 1 2.05722e-06 
-0.145787 0.0246032 -2.77665 0.0025 1.02055 1.02888 2.5205 0.00489933 141 4 1 -8.45383e-07 
-0.143342 0.0276547 -0.418343 0.0025 1.02287 1.03207 2.5228 0.00488819 142 3 1 -2.233e-06 
-0.140899 0.0272168 0.511967 0.0025 1.02267 1.03183 2.52256 0.00488919 143 4 1 -9.44153e-07 
-0.138453 0.0255667 0.928668 0.0025 1.02123 1.02984 2.52113 0.00489607 144 4 1 -3.70458e-07 
-0.136003 0.023334 1.1458 0.0025 1.01929 1.02711 2.51921 0.00490537 145 4 1 -1.2011e-07 
-0.133548 0.0208109 1.25213 0.0025 1.01713 1.02407 2.51706 0.0049158 146 4 1 2.33016e-08 
-0.131087 0.0181763 1.28215 0.0025 1.0149 1.02092 2.51485 0.00492662 147 4 1 1.16557e-07 
-0.128621 0.0155569 1.25683 0.0025 1.01269 1.01783 2.51266 0.00493733 148 4 1 1.78087e-07 
-0.12615 0.0130466 1.1903 0.0025 1.0106 1.01488 2.51057 0.00494756 149 4 1 2.16488e-07 
-0.123674 0.0107149 1.09367 0.0025 1.00867 1.01217 2.50865 0.00495702 150 4 1 2.36945e-07 
-0.121193 0.00861185 0.976262 0.0025 1.00694 1.00974 2.50693 0.00496554 151 4 1 2.42668e-07 
-0.118708 0.0067687 0.846826 0.0025 1.00544 1.00763 2.50542 0.00497297 152 4 1 2.36184e-07 
-0.11622 0.00519933 0.713639 0.0025 1.00416 1.00584 2.50415 0.00497928 153 4 1 2.20003e-07 
-0.113729 0.00390139 0.584161 0.0025 1.00311 1.00437 2.50311 0.00498449 154 4 1 1.96883e-07 
-0.111235 0.00285876 0.464459 0.0025 1.00227 1.00319 2.50227 0.00498865 155 4 1 1.69703e-07 
-0.10874 0.00204516 0.358759 0.0025 1.00162 1.00228 2.50162 0.0049919 156 4 1 1.41168e-07 
-0.106244 0.00142826 0.269303 0.0025 1.00113 1.00159 2.50113 0.00499435 157 4 1 1.13519e-07 
-0.103746 0.000973533 0.196534 0.0025 1.00077 1.00108 2.50077 0.00499615 158 4 1 8.837e-08 
-0.101247 0.000647571 0.139495 0.0025 1.00051 1.00072 2.50051 0.00499745 159 4 1 6.66724e-08 
-0.0987484 0.000420249 0.096325 0.0025 1.00033 1.00047 2.50033 0.00499834 160 4 1 4.87968e-08 
-0.096249 0.00026598 0.0647227 0.0025 1.00021 1.00029 2.50021 0.00499895 161 4 1 3.46687e-08 
-0.0937494 0.000164093 0.0423171 0.0025 1.00013 1.00018 2.50013 0.00499935 162 4 1 2.39209e-08 
-0.0912497 9.86113e-05 0.0269174 0.0025 1.00008 1.00011 2.50008 0.00499961 163 4 1 1.60327e-08 
-0.0887498 5.76707e-05 0.0166504 0.0025 1.00005 1.00006 2.50005 0.00499977 164 4 1 1.04382e-08 
-0.0862499 3.27838e-05 0.0100091 0.0025 1.00003 1.00004 2.50003 0.00499987 165 4 1 6.5996e-09 
-0.0837499 1.80874e-05 0.00584132 0.0025 1.00001 1.00002 2.50001 0.00499993 166 4 1 4.05006e-09 
-0.08125 9.66634e-06 0.00330517 0.0025 1.00001 1.00001 2.50001 0.00499996 167 4 1 2.41046e-09 
-0.07875 4.9915e-06 0.00180994 0.0025 1 1.00001 2.5 0.00499998 168 4 1 1.3897e-09 
-0.07625 2.48241e-06 0.000956969 0.0025 1 1 2.5 0.00499999 169 4 1 7.74859e-10 
-0.07375 1.18391e-06 0.000487007 0.0025 1 1 2.5 0.005 170 4 1 4.16933e-10 
-0.07125 5.38291e-07 0.000237544 0.0025 1 1 2.5 0.005 171 4 1 2.15868e-10 
-0.06875 2.3139e-07 0.000110404 0.0025 1 1 2.5 0.005 172 4 1 1.07121e-10 
-0.06625 9.28718e-08 4.84822e-05 0.0025 1 1 2.5 0.005 173 4 1 5.06687e-11 
-0.06375 3.41133e-08 1.98561e-05 0.0025 1 1 2.5 0.005 174 4 1 2.26645e-11 
-0.06125 1.10619e-08 7.42292e-06 0.0025 1 1 2.5 0.005 175 4 1 9.46984e-12 
-0.05875 2.93344e-09 2.42828e-06 0.0025 1 1 2.5 0.005 176 4 1 3.62238e-12 
-0.05625 5.00887e-10 6.27425e-07 0.0025 1 1 2.5 0.005 177 4 1 1.22929e-12 
-0.05375 -2.55735e-11 7.53108e-08 0.0025 1 1 2.5 0.005 178 4 1 3.42862e-13 
-0.05125 1.7929e-11 -6.38414e-08 0.0025 1 1 2.5 0.005 179 5 1 3.06937e-14 
-0.04875 6.72533e-11 -5.10607e-09 0.0025 1 1 2.5 0.005 180 3 1 -3.41544e-14 
-0.04625 5.5927e-11 1.00367e-08 0.0025 1 1 2.5 0.005 181 4 1 -5.84173e-15 
-0.04375 3.47605e-11 1.03792e-08 0.0025 1 1 2.5 0.005 182 4 1 2.95053e-15 
-0.04125 1.82337e-11 7.04154e-09 0.0025 1 1 2.5 0.005 183 4 1 4.1652e-15 
-0.03875 8.32678e-12 3.88178e-09 0.0025 1 1 2.5 0.005 184 4 1 3.05498e-15 
-0.03625 3.30922e-12 1.83013e-09 0.0025 1 1 2.5 0.005 185 4 1 1.74545e-15 
-0.03375 1.11308e-12 7.484e-10 0.0025 1 1 2.5 0.005 186 4 1 8.52296e-16 
-0.03125 2.89158e-13 2.52896e-10 0.0025 1 1 2.5 0.005 187 4 1 3.9897e-16 
-0.02875 4.06473e-14 6.53699e-11 0.0025 1 1 2.5 0.005 188 4 1 9.166e-17 
-0.02625 -1.31752e-14 5.51381e-12 0.0025 1 1 2.5 0.005 189 5 1 4.12115e-17 
-0.02375 2.65425e-15 -9.54969e-12 0.0025 1 1 2.5 0.005 190 4 1 1.42109e-18 
-0.02125 7.84297e-15 1.19371e-12 0.0025 1 1 2.5 0.005 191 3 1 -6.03961e-18 
-0.01875 6.05815e-15 1.13687e-12 0.0025 1 1 2.5 0.005 192 4 1 4.61853e-18 
-0.01625 3.65917e-15 3.41061e-13 0.0025 1 1 2.5 0.005 193 4 1 -4.61853e-18 
-0.01375 1.62662e-15 4.54747e-13 0.0025 1 1 2.5 0.005 194 4 1 3.90799e-18 
-0.01125 1.01405e-15 7.38964e-13 0.0025 1 1 2.5 0.005 195 4 1 -1.42109e-18 
-0.00875 7.25405e-16 -6.25278e-13 0.0025 1 1 2.5 0.005 196 5 1 7.10543e-19 
-0.00625 1.2812e-15 -3.41061e-13 0.0025 1 1 2.5 0.005 197 3 1 0 
-0.00375 5.46316e-16 2.84217e-13 0.0025 1 1 2.5 0.005 198 5 1 -1.42109e-18 
-0.00125 8.70727e-16 1.13687e-13 0.0025 1 1 2.5 0.005 199 4 1 3.77482e-33 
0.00125 3.91419e-16 -5.11591e-13 0.0025 1 1 2.5 0.005 200 3 1 -1.06581e-18 
0.00375 1.08012e-15 3.41061e-13 0.0025 1 1 2.5 0.005 201 3 1 -7.10543e-19 
0.00625 1.30898e-15 5.68434e-14 0.0025 1 1 2.5 0.005 202 5 1 -7.10543e-19 
0.00875 1.192e-15 -7.38964e-13 0.0025 1 1 2.5 0.005 203 3 1 3.55271e-19 
0.01125 1.20056e-15 1.36424e-12 0.0025 1 1 2.5 0.005 204 4 1 3.19744e-18 
0.01375 1.30585e-15 -1.25056e-12 0.0025 1 1 2.5 0.005 205 5 1 -4.9738e-18 
0.01625 1.53166e-15 2.27374e-13 0.0025 1 1 2.5 0.005 206 4 1 -1.77636e-18 
0.01875 2.30533e-15 -1.13687e-13 0.0025 1 1 2.5 0.005 207 4 1 1.2326e-31 
0.02125 -2.36313e-15 -1.02318e-12 0.0025 1 1 2.5 0.005 208 3 1 -3.19744e-18 
0.02375 4.50786e-15 7.21911e-12 0.0025 1 1 2.5 0.005 209 4 1 1.52767e-17 
0.02625 1.34362e-14 -2.27374e-12 0.0025 1 1 2.5 0.005 210 5 1 5.32907e-18 
0.02875 -3.36762e-14 -6.39488e-11 0.0025 1 1 2.5 0.005 211 4 1 1.39266e-16 
0.03125 -2.84589e-13 -2.55227e-10 0.0025 1 1 2.5 0.005 212 4 1 3.78364e-16 
0.03375 -1.10969e-12 -7.46638e-10 0.0025 1 1 2.5 0.005 213 4 1 8.39506e-16 
0.03625 -3.30818e-12 -1.82916e-09 0.0025 1 1 2.5 0.005 214 4 1 1.74438e-15 
0.03875 -8.31773e-12 -3.88332e-09 0.0025 1 1 2.5 0.005 215 4 1 3.07274e-15 
0.04125 -1.82214e-11 -7.04006e-09 0.0025 1 1 2.5 0.005 216 4 1 4.15774e-15 
0.04375 -3.47545e-11 -1.03802e-08 0.0025 1 1 2.5 0.005 217 4 1 2.94271e-15 
0.04625 -5.59203e-11 -1.00349e-08 0.0025 1 1 2.5 0.005 218 4 1 -5.83e-15 
0.04875 -6.7244e-11 5.10579e-09 0.0025 1 1 2.5 0.005 219 3 1 -3.41529e-14 
0.05125 -1.79202e-11 6.3839e-08 0.0025 1 1 2.5 0.005 220 5 1 3.06926e-14 
0.05375 2.55741e-11 -7.53141e-08 0.0025 1 1 2.5 0.005 221 4 1 3.42857e-13 
0.05625 -5.00886e-10 -6.27422e-07 0.0025 1 1 2.5 0.005 222 4 1 1.2293e-12 
0.05875 -2.93343e-09 -2.42828e-06 0.0025 1 1 2.5 0.005 223 4 1 3.62232e-12 
