# Time [s]: 0.294933
# Columns: pos [m], vel [m/s], acc [m/s^2], mass [kg], dens [kg/m^3], pres [Pa], ene [J/kg], sml [m], id, neighbor, alpha, gradh, ...additional?
1.30371 -0.673105 0.000490315 0.0025 0.511047 0.432722 2.1525 0.00978384 0 4 1 -0.000134226 
1.30849 -0.673107 0.000536771 0.0025 0.536903 0.426184 1.95003 0.00931267 1 4 1 0.000179251 
1.31303 -0.673108 0.000573823 0.0025 0.548232 0.430853 1.96849 0.00912022 2 3 1 -1.90587e-05 
1.31761 -0.67311 0.000607542 0.0025 0.545966 0.429188 1.96464 0.00915808 3 5 1 3.48583e-06 
1.32218 -0.673113 0.000642317 0.0025 0.546363 0.429341 1.96457 0.00915142 4 4 1 -1.38763e-07 
1.32676 -0.673115 0.000680399 0.0025 0.546373 0.42931 1.96434 0.00915126 5 4 1 1.43633e-07 
1.33134 -0.673118 0.00072015 0.0025 0.546395 0.429308 1.96428 0.0091509 6 4 1 -3.61242e-09 
1.33591 -0.67312 0.00075868 0.0025 0.546407 0.429303 1.96421 0.00915069 7 4 1 8.1337e-09 
1.34049 -0.673123 0.000795901 0.0025 0.546419 0.429301 1.96416 0.00915048 8 4 1 4.66347e-09 
1.34506 -0.673126 0.000836141 0.0025 0.54643 0.429299 1.96411 0.0091503 9 4 1 5.36584e-09 
1.34964 -0.67313 0.000885236 0.0025 0.54644 0.429297 1.96406 0.00915014 10 4 1 -2.37141e-09 
1.35421 -0.673134 0.000945438 0.0025 0.546449 0.429294 1.96402 0.00914998 11 4 1 4.57093e-09 
1.35879 -0.673138 0.00101317 0.0025 0.546457 0.429292 1.96398 0.00914985 12 4 1 2.67526e-09 
1.36336 -0.673142 0.00108243 0.0025 0.546464 0.429289 1.96394 0.00914973 13 4 1 3.38997e-09 
1.36794 -0.673147 0.00115104 0.0025 0.54647 0.429286 1.96391 0.00914964 14 4 1 1.93552e-09 
1.37251 -0.673152 0.00122386 0.0025 0.546475 0.429283 1.96387 0.00914955 15 4 1 -1.77863e-09 
1.37709 -0.673158 0.0013094 0.0025 0.546479 0.42928 1.96384 0.00914948 16 4 1 4.67602e-09 
1.38166 -0.673164 0.00141246 0.0025 0.546483 0.429276 1.96381 0.00914942 17 4 1 1.2171e-09 
1.38624 -0.673171 0.00152948 0.0025 0.546485 0.429272 1.96379 0.00914938 18 4 1 -1.48824e-09 
1.39081 -0.673178 0.00165095 0.0025 0.546487 0.429268 1.96376 0.00914934 19 4 1 2.39479e-09 
1.39538 -0.673185 0.0017699 0.0025 0.546489 0.429264 1.96374 0.00914932 20 4 1 8.66044e-10 
1.39996 -0.673193 0.00188985 0.0025 0.546489 0.429259 1.96371 0.00914931 21 3 1 8.78204e-10 
1.40453 -0.673202 0.00202548 0.0025 0.546489 0.429254 1.96369 0.00914931 22 4 1 7.00331e-10 
1.40911 -0.673212 0.00219316 0.0025 0.546488 0.429248 1.96367 0.00914933 23 4 1 -6.05747e-10 
1.41368 -0.673222 0.00239665 0.0025 0.546487 0.429242 1.96364 0.00914935 24 4 1 9.63551e-10 
1.41826 -0.673234 0.0026201 0.0025 0.546485 0.429236 1.96362 0.00914939 25 4 1 1.78081e-10 
1.42283 -0.673246 0.00283918 0.0025 0.546482 0.429229 1.9636 0.00914944 26 4 1 -9.17724e-10 
1.42741 -0.673259 0.00304619 0.0025 0.546478 0.429221 1.96358 0.0091495 27 4 1 6.71608e-10 
1.43198 -0.673273 0.00326723 0.0025 0.546474 0.429213 1.96356 0.00914957 28 4 1 2.52191e-10 
1.43656 -0.673289 0.00354894 0.0025 0.546468 0.429204 1.96353 0.00914966 29 4 1 -1.54623e-09 
1.44113 -0.673307 0.00391971 0.0025 0.546462 0.429194 1.96351 0.00914977 30 4 1 -4.98026e-10 
1.44571 -0.673326 0.00436128 0.0025 0.546455 0.429183 1.96349 0.00914989 31 4 1 7.77011e-10 
1.45028 -0.673346 0.004823 0.0025 0.546446 0.429171 1.96347 0.00915003 32 4 1 -2.13441e-09 
1.45486 -0.673368 0.00526959 0.0025 0.546436 0.429158 1.96344 0.0091502 33 4 1 -2.13206e-09 
1.45943 -0.673393 0.00571837 0.0025 0.546426 0.429143 1.96341 0.00915038 34 4 1 7.35994e-10 
1.46401 -0.67342 0.00623306 0.0025 0.546413 0.429127 1.96338 0.00915059 35 4 1 -1.80922e-09 
1.46858 -0.673451 0.00688136 0.0025 0.546399 0.42911 1.96335 0.00915082 36 4 1 -2.84489e-09 
1.47316 -0.673485 0.00769147 0.0025 0.546383 0.429091 1.96332 0.00915108 37 4 1 -9.69385e-10 
1.47773 -0.673522 0.00864142 0.0025 0.546366 0.429069 1.96329 0.00915138 38 4 1 -2.69262e-09 
1.48231 -0.673564 0.00969072 0.0025 0.546345 0.429045 1.96325 0.00915172 39 4 1 -3.84014e-09 
1.48689 -0.67361 0.0108276 0.0025 0.546322 0.429018 1.96321 0.00915211 40 4 1 -2.71357e-09 
1.49146 -0.673661 0.0120891 0.0025 0.546296 0.428987 1.96316 0.00915255 41 4 1 -3.38874e-09 
1.49604 -0.673719 0.0135322 0.0025 0.546266 0.428953 1.96311 0.00915305 42 4 1 -4.97852e-09 
-0.499385 -0.673785 0.0151863 0.0025 0.546233 0.428915 1.96306 0.00915361 43 4 1 -4.94494e-09 
-0.494808 -0.673858 0.0170503 0.0025 0.546195 0.428872 1.963 0.00915424 44 4 1 -4.56968e-09 
-0.490231 -0.673942 0.0191476 0.0025 0.546152 0.428823 1.96293 0.00915496 45 4 1 -6.54882e-09 
-0.485653 -0.674035 0.0215455 0.0025 0.546104 0.428769 1.96286 0.00915576 46 4 1 -7.60995e-09 
-0.481075 -0.67414 0.0242776 0.0025 0.54605 0.428709 1.96277 0.00915667 47 4 1 -6.9209e-09 
-0.476497 -0.674256 0.0272399 0.0025 0.545989 0.428641 1.96268 0.00915769 48 4 1 -7.35807e-09 
-0.471918 -0.674385 0.0300835 0.0025 0.545922 0.428566 1.96258 0.00915882 49 4 1 -7.275e-09 
-0.467338 -0.674527 0.0322648 0.0025 0.545849 0.428484 1.96247 0.00916004 50 4 1 -4.71014e-09 
-0.462758 -0.674684 0.0336572 0.0025 0.545772 0.428398 1.96235 0.00916134 51 4 1 -1.28808e-09 
-0.458177 -0.674855 0.034986 0.0025 0.545692 0.42831 1.96223 0.00916267 52 4 1 -5.15473e-10 
-0.453595 -0.675032 0.0365941 0.0025 0.545612 0.428221 1.96211 0.00916402 53 4 1 5.13598e-10 
-0.449013 -0.675203 0.0370499 0.0025 0.545533 0.428133 1.96199 0.00916535 54 4 1 6.27908e-09 
-0.44443 -0.67536 0.0345142 0.0025 0.545458 0.428051 1.96188 0.0091666 55 4 1 1.47704e-08 
-0.439846 -0.675498 0.0291354 0.0025 0.545395 0.427981 1.96179 0.00916767 56 4 1 2.33474e-08 
-0.435262 -0.675602 0.0213744 0.0025 0.545351 0.427932 1.96172 0.0091684 57 4 1 2.09489e-08 
-0.430678 -0.675646 0.0115097 0.0025 0.545326 0.427903 1.96168 0.00916883 58 5 1 3.80953e-08 
-0.426093 -0.675711 0.00523888 0.0025 0.545333 0.427915 1.96169 0.00916872 59 4 1 1.5616e-07 
-0.421509 -0.675472 -0.102432 0.0025 0.545467 0.428064 1.96188 0.00916646 60 4 1 2.1751e-07 
-0.416927 -0.674868 -0.152032 0.0025 0.545779 0.428408 1.96232 0.00916122 61 4 1 2.82474e-07 
-0.412348 -0.673987 -0.264118 0.0025 0.546317 0.429012 1.96309 0.00915219 62 4 1 6.5587e-07 
-0.407774 -0.672165 -0.586091 0.0025 0.547352 0.430163 1.96457 0.00913489 63 4 1 1.12383e-06 
-0.403213 -0.668674 -1.00761 0.0025 0.549169 0.432164 1.96717 0.00910467 64 4 1 1.28166e-06 
-0.39867 -0.663618 -1.31747 0.0025 0.551767 0.435021 1.97089 0.00906179 65 4 1 1.20457e-06 
-0.394151 -0.657488 -1.5262 0.0025 0.554962 0.438546 1.97545 0.00900963 66 4 1 1.24788e-06 
-0.38966 -0.650532 -1.74454 0.0025 0.558659 0.442644 1.9807 0.00895 67 4 1 1.47774e-06 
-0.385201 -0.642591 -2.00681 0.0025 0.562892 0.447349 1.98668 0.0088827 68 4 1 1.75261e-06 
-0.380777 -0.633603 -2.28551 0.0025 0.567704 0.452712 1.99346 0.00880741 69 4 1 1.98447e-06 
-0.376393 -0.623574 -2.55867 0.0025 0.573091 0.458733 2.001 0.00872462 70 4 1 2.06881e-06 
-0.372052 -0.612668 -2.75506 0.0025 0.578958 0.465314 2.00917 0.00863621 71 4 1 1.98548e-06 
-0.367757 -0.601322 -2.86466 0.0025 0.585138 0.472274 2.01772 0.00854499 72 4 1 1.81784e-06 
-0.363507 -0.589804 -2.89676 0.0025 0.591462 0.479429 2.02642 0.00845363 73 4 1 1.66202e-06 
-0.359303 -0.578401 -2.90084 0.0025 0.597812 0.486646 2.03509 0.00836383 74 4 1 1.52751e-06 
-0.355143 -0.56716 -2.87385 0.0025 0.604118 0.493845 2.04365 0.00827653 75 4 1 1.39511e-06 
-0.351026 -0.556203 -2.83011 0.0025 0.610329 0.500965 2.05202 0.0081923 76 4 1 1.28276e-06 
-0.34695 -0.545549 -2.7764 0.0025 0.616417 0.507974 2.06018 0.00811139 77 4 1 1.22143e-06 
-0.342914 -0.535186 -2.74404 0.0025 0.62239 0.514877 2.06814 0.00803355 78 4 1 1.15821e-06 
-0.338917 -0.52508 -2.69478 0.0025 0.628252 0.521679 2.07591 0.00795859 79 4 1 1.10084e-06 
-0.334956 -0.515274 -2.66058 0.0025 0.634008 0.528383 2.08349 0.00788634 80 4 1 1.07978e-06 
-0.33103 -0.505662 -2.63479 0.0025 0.639682 0.535015 2.09093 0.00781639 81 4 1 1.08367e-06 
-0.327139 -0.496191 -2.63163 0.0025 0.645306 0.541613 2.09826 0.00774826 82 4 1 1.10235e-06 
-0.323282 -0.486817 -2.63632 0.0025 0.650916 0.548219 2.10554 0.00768148 83 4 1 1.16835e-06 
-0.319458 -0.477454 -2.6884 0.0025 0.656567 0.554895 2.11283 0.00761537 84 4 1 1.24979e-06 
-0.315666 -0.46796 -2.75062 0.0025 0.662311 0.561705 2.1202 0.00754933 85 4 1 1.31019e-06 
-0.311908 -0.458364 -2.82822 0.0025 0.668175 0.56868 2.12769 0.00748307 86 4 1 1.34237e-06 
-0.308183 -0.448617 -2.89025 0.0025 0.674162 0.575826 2.13529 0.00741661 87 4 1 1.35981e-06 
-0.304491 -0.438764 -2.95816 0.0025 0.680263 0.583135 2.143 0.00735009 88 4 1 1.398e-06 
-0.300833 -0.428756 -3.03597 0.0025 0.686484 0.59061 2.15081 0.0072835 89 4 1 1.34447e-06 
-0.297208 -0.418718 -3.0453 0.0025 0.692774 0.598198 2.15868 0.00721737 90 4 1 1.29946e-06 
-0.293615 -0.40872 -3.08016 0.0025 0.699095 0.605853 2.16653 0.00715211 91 4 1 1.3097e-06 
-0.290055 -0.398717 -3.11207 0.0025 0.705456 0.613584 2.17439 0.00708761 92 4 1 1.25002e-06 
-0.286528 -0.388784 -3.10323 0.0025 0.711824 0.621351 2.18222 0.00702421 93 4 1 1.24033e-06 
-0.283031 -0.378929 -3.1388 0.0025 0.718196 0.629152 2.19002 0.00696189 94 4 1 1.22187e-06 
-0.279565 -0.369115 -3.13436 0.0025 0.724574 0.636986 2.19777 0.00690061 95 4 1 1.16644e-06 
-0.27613 -0.359442 -3.13351 0.0025 0.73093 0.644822 2.20546 0.0068406 96 4 1 1.16732e-06 
-0.272725 -0.349815 -3.15133 0.0025 0.737278 0.652675 2.2131 0.00678171 97 4 1 1.11684e-06 
-0.269348 -0.340294 -3.1243 0.0025 0.7436 0.660523 2.22068 0.00672405 98 4 1 1.11651e-06 
-0.266001 -0.330881 -3.15875 0.0025 0.749908 0.668383 2.22819 0.00666748 99 4 1 1.12837e-06 
-0.262681 -0.32148 -3.16504 0.0025 0.756227 0.676278 2.23568 0.00661178 100 4 1 1.05982e-06 
-0.259389 -0.312208 -3.14433 0.0025 0.762517 0.684167 2.2431 0.00655723 101 4 1 1.05566e-06 
-0.256123 -0.303031 -3.16595 0.0025 0.76879 0.692061 2.25046 0.00650373 102 4 1 1.07097e-06 
-0.252885 -0.293867 -3.18281 0.0025 0.775069 0.699985 2.2578 0.00645103 103 4 1 9.88818e-07 
-0.249672 -0.284838 -3.13634 0.0025 0.781311 0.707889 2.26505 0.0063995 104 4 1 9.92451e-07 
-0.246485 -0.275954 -3.17245 0.0025 0.787528 0.71579 2.27224 0.00634898 105 4 1 1.04752e-06 
-0.243323 -0.266988 -3.2063 0.0025 0.793775 0.723749 2.27944 0.00629902 106 4 1 9.66281e-07 
-0.240186 -0.258155 -3.167 0.0025 0.800002 0.731709 2.28657 0.00624999 107 4 1 9.15388e-07 
-0.237073 -0.249477 -3.16052 0.0025 0.806182 0.739637 2.29362 0.00620208 108 4 1 9.92559e-07 
-0.233984 -0.240779 -3.22752 0.0025 0.812384 0.747615 2.30066 0.00615473 109 4 1 9.4796e-07 
-0.230918 -0.232078 -3.18952 0.0025 0.818587 0.755614 2.30767 0.00610809 110 4 1 8.25483e-07 
-0.227876 -0.223663 -3.13281 0.0025 0.82471 0.763542 2.31456 0.00606274 111 4 1 9.21342e-07 
-0.224856 -0.215222 -3.22264 0.0025 0.830838 0.7715 2.32142 0.00601802 112 4 1 9.60912e-07 
-0.221858 -0.206732 -3.23041 0.0025 0.837015 0.779538 2.32832 0.00597361 113 4 1 8.31343e-07 
-0.218882 -0.198393 -3.17432 0.0025 0.843146 0.787541 2.33512 0.00593017 114 4 1 8.04449e-07 
-0.215927 -0.190218 -3.1708 0.0025 0.849222 0.795503 2.34184 0.00588774 115 4 1 9.16622e-07 
-0.212994 -0.182005 -3.26524 0.0025 0.855342 0.803541 2.34857 0.00584561 116 4 1 8.90859e-07 
-0.210082 -0.173705 -3.24378 0.0025 0.861491 0.811632 2.35531 0.00580389 117 4 1 6.88496e-07 
-0.20719 -0.165718 -3.11277 0.0025 0.867523 0.8196 2.36189 0.00576354 118 4 1 7.44228e-07 
-0.204318 -0.157897 -3.17955 0.0025 0.873497 0.827522 2.36838 0.00572412 119 4 1 9.62317e-07 
-0.201466 -0.149822 -3.32957 0.0025 0.879596 0.835619 2.37499 0.00568443 120 4 1 8.09632e-07 
-0.198634 -0.141746 -3.21451 0.0025 0.885704 0.843742 2.38157 0.00564523 121 4 1 5.65051e-07 
-0.195821 -0.134124 -3.07392 0.0025 0.891633 0.851668 2.38793 0.00560769 122 4 1 7.90567e-07 
-0.193026 -0.126502 -3.26272 0.0025 0.897579 0.85964 2.39428 0.00557054 123 4 1 1.00029e-06 
-0.19025 -0.118506 -3.396 0.0025 0.903715 0.867867 2.40083 0.00553271 124 4 1 6.35686e-07 
-0.187493 -0.110708 -3.13421 0.0025 0.909751 0.875981 2.40723 0.00549601 125 4 1 4.3213e-07 
-0.184754 -0.103499 -3.02978 0.0025 0.915531 0.883797 2.41332 0.00546131 126 4 1 8.08384e-07 
-0.182032 -0.0961298 -3.28349 0.0025 0.921389 0.891733 2.41949 0.00542659 127 4 1 9.66591e-07 
-0.179327 -0.0883407 -3.38531 0.0025 0.927461 0.899957 2.42586 0.00539106 128 4 1 5.57113e-07 
-0.176641 -0.0808319 -3.1059 0.0025 0.933408 0.908038 2.43207 0.00535671 129 4 1 4.2916e-07 
-0.17397 -0.0738438 -3.05923 0.0025 0.93913 0.915854 2.43801 0.00532408 130 4 1 8.0461e-07 
-0.171316 -0.0666231 -3.30842 0.0025 0.944959 0.923828 2.44406 0.00529123 131 4 1 8.51344e-07 
-0.168679 -0.0590905 -3.33083 0.0025 0.950944 0.932013 2.45025 0.00525793 132 4 1 4.31431e-07 
-0.166058 -0.0519812 -3.02693 0.0025 0.956738 0.93997 2.4562 0.00522609 133 4 1 4.48737e-07 
-0.163453 -0.0452463 -3.09999 0.0025 0.96236 0.94773 2.46196 0.00519556 134 4 1 8.62922e-07 
-0.160863 -0.0380939 -3.39303 0.0025 0.968161 0.95573 2.4679 0.00516443 135 4 1 4.59935e-07 
-0.158289 -0.0310143 -2.95899 0.0025 0.973833 0.963549 2.47367 0.00513435 136 4 1 -1.73601e-07 
-0.155728 -0.0252124 -2.40872 0.0025 0.978903 0.97061 2.47878 0.00510776 137 4 1 9.2724e-07 
-0.153181 -0.0191117 -3.47406 0.0025 0.984308 0.978174 2.48424 0.00507971 138 4 1 2.03906e-06 
-0.150649 -0.0105268 -4.39598 0.0025 0.990876 0.987252 2.49094 0.00504604 139 4 1 -4.23812e-07 
-0.148135 -0.0031059 -2.22615 0.0025 0.996553 0.995081 2.49664 0.0050173 140 4 1 -2.25285e-06 
-0.145631 -0.000468462 -0.580016 0.0025 0.999792 0.999728 2.49976 0.00500104 141 4 1 1.25333e-06 
-0.143134 0.00345457 -3.52474 0.0025 1.0038 1.00547 2.50377 0.00498108 142 4 1 3.57081e-06 
-0.14065 0.0130087 -5.08968 0.0025 1.01054 1.01478 2.51063 0.00494783 143 4 1 -1.16653e-06 
-0.138186 0.0200214 -1.43175 0.0025 1.01587 1.02214 2.51591 0.00492188 144 4 1 -3.41673e-06 
-0.135728 0.0205803 0.386684 0.0025 1.01752 1.02461 2.51742 0.0049139 145 4 1 3.40017e-07 
-0.133272 0.022079 -1.91451 0.0025 1.0191 1.02689 2.519 0.0049063 146 4 1 8.97748e-07 
-0.130822 0.0259069 -1.29047 0.0025 1.02147 1.03013 2.52141 0.00489491 147 4 1 -1.57605e-06 
-0.128377 0.0266095 0.143709 0.0025 1.02221 1.03118 2.52212 0.00489135 148 3 1 -1.33232e-06 
-0.125931 0.0256105 0.647287 0.0025 1.02133 1.02997 2.52123 0.00489559 149 4 1 -5.46573e-07 
-0.123481 0.0238138 0.960534 0.0025 1.01974 1.02775 2.51966 0.00490319 150 4 1 -2.48809e-07 
-0.121028 0.0215732 1.13375 0.0025 1.0178 1.02502 2.51773 0.00491254 151 4 1 -7.24929e-08 
-0.118569 0.0191054 1.21657 0.0025 1.0157 1.02205 2.51564 0.00492273 152 4 1 4.85248e-08 
-0.116105 0.0165668 1.2291 0.0025 1.01355 1.01903 2.51351 0.00493315 153 4 1 1.31584e-07 
-0.113636 0.0140752 1.18963 0.0025 1.01147 1.0161 2.51143 0.00494332 154 4 1 1.85914e-07 
-0.111161 0.0117181 1.11212 0.0025 1.00951 1.01335 2.50948 0.00495291 155 4 1 2.17415e-07 
-0.108683 0.00955744 1.00845 0.0025 1.00772 1.01084 2.50771 0.00496167 156 4 1 2.30935e-07 
-0.1062 0.00763365 0.888759 0.0025 1.00615 1.00863 2.50614 0.00496945 157 4 1 2.30391e-07 
-0.103713 0.00596803 0.761885 0.0025 1.00479 1.00672 2.50478 0.00497617 158 4 1 2.19108e-07 
-0.101224 0.00456511 0.635476 0.0025 1.00365 1.00513 2.50365 0.00498181 159 4 1 2.00106e-07 
-0.0987314 0.00341538 0.515781 0.0025 1.00272 1.00382 2.50272 0.00498641 160 4 1 1.76205e-07 
-0.0962372 0.00249846 0.407421 0.0025 1.00199 1.00279 2.50198 0.00499008 161 4 1 1.49974e-07 
-0.0937414 0.00178673 0.313268 0.0025 1.00142 1.00199 2.50142 0.00499292 162 4 1 1.23597e-07 
-0.0912443 0.00124887 0.234527 0.0025 1.00099 1.00139 2.50099 0.00499506 163 4 1 9.87544e-08 
-0.0887463 0.000853028 0.170998 0.0025 1.00067 1.00095 2.50067 0.00499663 164 4 1 7.65787e-08 
-0.0862477 0.000569253 0.121453 0.0025 1.00045 1.00063 2.50045 0.00499775 165 4 1 5.76779e-08 
-0.0837486 0.000371037 0.0840476 0.0025 1.00029 1.00041 2.50029 0.00499854 166 4 1 4.22207e-08 
-0.0812491 0.000236118 0.0566716 0.0025 1.00019 1.00026 2.50019 0.00499907 167 4 1 3.00501e-08 
-0.0787495 0.000146631 0.0372305 0.0025 1.00012 1.00016 2.50011 0.00499942 168 4 1 2.08011e-08 
-0.0762497 8.88002e-05 0.0238245 0.0025 1.00007 1.0001 2.50007 0.00499965 169 4 1 1.40053e-08 
-0.0737498 5.23999e-05 0.0148443 0.0025 1.00004 1.00006 2.50004 0.00499979 170 4 1 9.17134e-09 
-0.0712499 3.00961e-05 0.0089998 0.0025 1.00002 1.00003 2.50002 0.00499988 171 4 1 5.83972e-09 
-0.06875 1.68022e-05 0.00530466 0.0025 1.00001 1.00002 2.50001 0.00499993 172 4 1 3.61379e-09 
-0.06625 9.10242e-06 0.00303612 0.0025 1.00001 1.00001 2.50001 0.00499996 173 4 1 2.17185e-09 
-0.06375 4.77471e-06 0.00168479 0.0025 1 1.00001 2.5 0.00499998 174 4 1 1.26633e-09 
-0.06125 2.41843e-06 0.000904596 0.0025 1 1 2.5 0.00499999 175 4 1 7.1534e-10 
-0.05875 1.17854e-06 0.000468701 0.0025 1 1 2.5 0.005 176 4 1 3.90772e-10 
-0.05625 5.49893e-07 0.000233529 0.0025 1 1 2.5 0.005 177 4 1 2.05927e-10 
-0.05375 2.44021e-07 0.000111357 0.0025 1 1 2.5 0.005 178 4 1 1.04341e-10 
-0.05125 1.01997e-07 5.04782e-05 0.0025 1 1 2.5 0.005 179 4 1 5.06065e-11 
-0.04875 3.95659e-08 2.15382e-05 0.0025 1 1 2.5 0.005 180 4 1 2.33465e-11 
-0.04625 1.38955e-08 8.51607e-06 0.0025 1 1 2.5 0.005 181 4 1 1.01505e-11 
-0.04375 4.21534e-09 3.03525e-06 0.0025 1 1 2.5 0.005 182 4 1 4.09917e-12 
-0.04125 9.8801e-10 9.24288e-07 0.0025 1 1 2.5 0.005 183 4 1 1.49451e-12 
-0.03875 1.12464e-10 2.04338e-07 0.0025 1 1 2.5 0.005 184 4 1 4.83055e-13 
-0.03625 -2.46028e-11 -1.48314e-08 0.0025 1 1 2.5 0.005 185 5 1 1.1239e-13 
-0.03375 3.13371e-11 -2.31146e-08 0.0025 1 1 2.5 0.005 186 4 1 -1.31731e-14 
-0.03125 4.11597e-11 2.29443e-09 0.0025 1 1 2.5 0.005 187 3 1 -1.31575e-14 
-0.02875 2.99088e-11 6.85543e-09 0.0025 1 1 2.5 0.005 188 4 1 -6.37357e-16 
-0.02625 1.73855e-11 5.74801e-09 0.0025 1 1 2.5 0.005 189 4 1 2.44817e-15 
-0.02375 8.69473e-12 3.57909e-09 0.0025 1 1 2.5 0.005 190 4 1 2.39204e-15 
-0.02125 3.81297e-12 1.86725e-09 0.0025 1 1 2.5 0.005 191 4 1 1.57279e-15 
-0.01875 1.45157e-12 8.4367e-10 0.0025 1 1 2.5 0.005 192 4 1 8.54428e-16 
-0.01625 4.6157e-13 3.28839e-10 0.0025 1 1 2.5 0.005 193 4 1 3.89377e-16 
-0.01375 1.07946e-13 1.05274e-10 0.0025 1 1 2.5 0.005 194 4 1 1.67333e-16 
-0.01125 9.61609e-15 2.34195e-11 0.0025 1 1 2.5 0.005 195 4 1 4.79616e-17 
-0.00875 -5.4616e-15 -2.6148e-12 0.0025 1 1 2.5 0.005 196 5 1 1.66978e-17 
-0.00625 3.31307e-15 -2.84217e-12 0.0025 1 1 2.5 0.005 197 4 1 -3.90799e-18 
-0.00375 4.12003e-15 3.97904e-13 0.0025 1 1 2.5 0.005 198 3 1 -7.10543e-19 
-0.00125 2.13242e-15 3.41061e-13 0.0025 1 1 2.5 0.005 199 4 1 1.06581e-18 
0.00125 5.83928e-16 2.27374e-13 0.0025 1 1 2.5 0.005 200 4 1 -1.42109e-18 
0.00375 -2.1593e-16 3.41061e-13 0.0025 1 1 2.5 0.005 201 4 1 -2.4869e-18 
0.00625 3.00963e-15 3.63798e-12 0.0025 1 1 2.5 0.005 202 4 1 1.70175e-31 
0.00875 8.95374e-15 1.7053e-12 0.0025 1 1 2.5 0.005 203 5 1 1.35003e-17 
0.01125 -4.82831e-15 -2.37605e-11 0.0025 1 1 2.5 0.005 204 4 1 5.43565e-17 
0.01375 -1.03263e-13 -1.04592e-10 0.0025 1 1 2.5 0.005 205 4 1 1.57385e-16 
0.01625 -4.56239e-13 -3.28612e-10 0.0025 1 1 2.5 0.005 206 4 1 3.94706e-16 
0.01875 -1.44483e-12 -8.43272e-10 0.0025 1 1 2.5 0.005 207 4 1 8.52296e-16 
0.02125 -3.80483e-12 -1.86719e-09 0.0025 1 1 2.5 0.005 208 4 1 1.5703e-15 
0.02375 -8.68758e-12 -3.57932e-09 0.0025 1 1 2.5 0.005 209 4 1 2.4091e-15 
0.02625 -1.73771e-11 -5.74767e-09 0.0025 1 1 2.5 0.005 210 4 1 2.41229e-15 
0.02875 -2.99006e-11 -6.85554e-09 0.0025 1 1 2.5 0.005 211 4 1 -5.89395e-16 
0.03125 -4.11476e-11 -2.29204e-09 0.0025 1 1 2.5 0.005 212 3 1 -1.31813e-14 
0.03375 -3.1326e-11 2.31136e-08 0.0025 1 1 2.5 0.005 213 4 1 -1.31859e-14 
0.03625 2.46137e-11 1.48262e-08 0.0025 1 1 2.5 0.005 214 5 1 1.12398e-13 
0.03875 -1.12462e-10 -2.04335e-07 0.0025 1 1 2.5 0.005 215 4 1 4.83062e-13 
0.04125 -9.8801e-10 -9.24287e-07 0.0025 1 1 2.5 0.005 216 4 1 1.49451e-12 
0.04375 -4.21534e-09 -3.03526e-06 0.0025 1 1 2.5 0.005 217 4 1 4.09918e-12 
0.04625 -1.38955e-08 -8.51607e-06 0.0025 1 1 2.5 0.005 218 4 1 1.01506e-11 
0.04875 -3.95659e-08 -2.15382e-05 0.0025 1 1 2.5 0.005 219 4 1 2.33465e-11 
0.05125 -1.01997e-07 -5.04782e-05 0.0025 1 1 2.5 0.005 220 4 1 5.06065e-11 
0.05375 -2.44021e-07 -0.000111357 0.0025 1 1 2.5 0.005 221 4 1 1.04341e-10 
