# Time [s]: 0.293084
# Columns: pos [m], vel [m/s], acc [m/s^2], mass [kg], dens [kg/m^3], pres [Pa], ene [J/kg], sml [m], id, neighbor, alpha, gradh, ...additional?
1.30495 -0.673106 0.000494009 0.0025 0.511047 0.432722 2.15249 0.00978385 0 4 1 -0.000134226 
1.30973 -0.673108 0.000545572 0.0025 0.536903 0.426184 1.95003 0.00931267 1 4 1 0.000179251 
1.31427 -0.67311 0.000586424 0.0025 0.548232 0.430853 1.96849 0.00912023 2 3 1 -1.90587e-05 
1.31885 -0.673112 0.00062209 0.0025 0.545966 0.429187 1.96464 0.00915808 3 5 1 3.48583e-06 
1.32343 -0.673114 0.000657467 0.0025 0.546363 0.429341 1.96457 0.00915143 4 4 1 -1.38766e-07 
1.32801 -0.673116 0.000696572 0.0025 0.546372 0.42931 1.96434 0.00915127 5 4 1 1.43628e-07 
1.33258 -0.673119 0.000739151 0.0025 0.546394 0.429307 1.96428 0.0091509 6 4 1 -3.62054e-09 
1.33716 -0.673122 0.000781902 0.0025 0.546406 0.429303 1.96421 0.00915071 7 4 1 8.12315e-09 
1.34173 -0.673125 0.000822701 0.0025 0.546419 0.4293 1.96415 0.00915049 8 4 1 4.65474e-09 
1.34631 -0.673128 0.000864121 0.0025 0.546429 0.429298 1.96411 0.00915031 9 4 1 5.36211e-09 
1.35088 -0.673132 0.000912445 0.0025 0.546439 0.429296 1.96406 0.00915015 10 4 1 -2.37157e-09 
1.35546 -0.673136 0.000972481 0.0025 0.546448 0.429293 1.96402 0.00915 11 4 1 4.56899e-09 
1.36003 -0.67314 0.001043 0.0025 0.546456 0.429291 1.96397 0.00914986 12 4 1 2.66715e-09 
1.36461 -0.673144 0.00111768 0.0025 0.546463 0.429288 1.96394 0.00914975 13 4 1 3.37678e-09 
1.36918 -0.673149 0.00119144 0.0025 0.546469 0.429285 1.9639 0.00914966 14 4 1 1.92336e-09 
1.37376 -0.673155 0.00126622 0.0025 0.546473 0.429282 1.96387 0.00914957 15 4 1 -1.7843e-09 
1.37833 -0.67316 0.00135056 0.0025 0.546478 0.429278 1.96384 0.0091495 16 4 1 4.67605e-09 
1.38291 -0.673167 0.00145262 0.0025 0.546481 0.429275 1.96381 0.00914945 17 4 1 1.21544e-09 
1.38748 -0.673173 0.00157289 0.0025 0.546484 0.429271 1.96379 0.0091494 18 4 1 -1.49973e-09 
1.39206 -0.673181 0.00170309 0.0025 0.546486 0.429266 1.96376 0.00914937 19 4 1 2.37176e-09 
1.39663 -0.673188 0.00183306 0.0025 0.546487 0.429262 1.96373 0.00914935 20 4 1 8.38948e-10 
1.4012 -0.673197 0.00196071 0.0025 0.546487 0.429257 1.96371 0.00914934 21 3 1 8.58841e-10 
1.40578 -0.673206 0.00209711 0.0025 0.546487 0.429252 1.96369 0.00914935 22 4 1 6.94872e-10 
1.41035 -0.673216 0.00226125 0.0025 0.546486 0.429246 1.96366 0.00914936 23 4 1 -6.04794e-10 
1.41493 -0.673227 0.00246553 0.0025 0.546485 0.42924 1.96364 0.00914939 24 4 1 9.51896e-10 
1.4195 -0.673238 0.00270247 0.0025 0.546482 0.429233 1.96362 0.00914943 25 4 1 1.38196e-10 
1.42408 -0.673251 0.00294679 0.0025 0.546479 0.429226 1.9636 0.00914948 26 4 1 -9.80407e-10 
1.42865 -0.673265 0.00317791 0.0025 0.546475 0.429218 1.96357 0.00914955 27 4 1 6.14509e-10 
1.43323 -0.673279 0.0034069 0.0025 0.54647 0.429209 1.96355 0.00914963 28 4 1 2.29031e-10 
1.4378 -0.673296 0.00367919 0.0025 0.546464 0.4292 1.96353 0.00914973 29 4 1 -1.53814e-09 
1.44238 -0.673314 0.00404114 0.0025 0.546458 0.429189 1.96351 0.00914983 30 4 1 -4.98542e-10 
1.44695 -0.673334 0.00449728 0.0025 0.54645 0.429178 1.96348 0.00914996 31 4 1 7.22736e-10 
1.45153 -0.673355 0.00500293 0.0025 0.546441 0.429166 1.96346 0.00915011 32 4 1 -2.25106e-09 
1.4561 -0.673378 0.00550543 0.0025 0.546431 0.429152 1.96343 0.00915028 33 4 1 -2.27341e-09 
1.46068 -0.673404 0.00599663 0.0025 0.54642 0.429137 1.9634 0.00915048 34 4 1 6.21737e-10 
1.46525 -0.673432 0.0065284 0.0025 0.546407 0.42912 1.96337 0.0091507 35 4 1 -1.87432e-09 
1.46983 -0.673464 0.00717965 0.0025 0.546392 0.429102 1.96334 0.00915094 36 4 1 -2.88723e-09 
1.4744 -0.673499 0.00800427 0.0025 0.546375 0.429082 1.96331 0.00915122 37 4 1 -1.04395e-09 
1.47898 -0.673539 0.00900057 0.0025 0.546357 0.429059 1.96328 0.00915153 38 4 1 -2.84027e-09 
1.48356 -0.673582 0.0101268 0.0025 0.546335 0.429034 1.96324 0.00915189 39 4 1 -4.05681e-09 
1.48813 -0.67363 0.0113514 0.0025 0.546311 0.429006 1.96319 0.0091523 40 4 1 -2.95896e-09 
1.49271 -0.673684 0.0126932 0.0025 0.546283 0.428974 1.96315 0.00915276 41 4 1 -3.62906e-09 
1.49728 -0.673745 0.0142131 0.0025 0.546252 0.428938 1.96309 0.00915328 42 4 1 -5.22114e-09 
-0.498139 -0.673814 0.0159607 0.0025 0.546217 0.428897 1.96304 0.00915387 43 4 1 -5.2176e-09 
-0.493562 -0.673891 0.0179365 0.0025 0.546177 0.428852 1.96297 0.00915454 44 4 1 -4.858e-09 
-0.488985 -0.673978 0.0201338 0.0025 0.546132 0.428802 1.9629 0.00915529 45 4 1 -6.78647e-09 
-0.484407 -0.674076 0.0225975 0.0025 0.546082 0.428745 1.96282 0.00915614 46 4 1 -7.75151e-09 
-0.479828 -0.674186 0.0253773 0.0025 0.546025 0.428681 1.96274 0.00915709 47 4 1 -6.99432e-09 
-0.47525 -0.674308 0.0284199 0.0025 0.545962 0.42861 1.96264 0.00915815 48 4 1 -7.47322e-09 
-0.47067 -0.674442 0.0314645 0.0025 0.545892 0.428532 1.96254 0.00915933 49 4 1 -7.53028e-09 
-0.46609 -0.674588 0.0339115 0.0025 0.545816 0.428448 1.96242 0.0091606 50 4 1 -4.75716e-09 
-0.46151 -0.674748 0.0351707 0.0025 0.545735 0.428358 1.9623 0.00916195 51 4 1 -1.76431e-10 
-0.456928 -0.67492 0.0356116 0.0025 0.545654 0.428268 1.96218 0.00916332 52 4 1 2.12194e-09 
-0.452346 -0.675099 0.0361317 0.0025 0.545574 0.428179 1.96206 0.00916467 53 4 1 3.50335e-09 
-0.447764 -0.675271 0.0360098 0.0025 0.545497 0.428094 1.96194 0.00916595 54 4 1 8.43554e-09 
-0.44318 -0.675423 0.033158 0.0025 0.545427 0.428016 1.96184 0.00916713 55 4 1 1.71253e-08 
-0.438597 -0.675549 0.0262831 0.0025 0.54537 0.427954 1.96175 0.00916809 56 4 1 2.839e-08 
-0.434012 -0.675636 0.0140847 0.0025 0.545336 0.427915 1.9617 0.00916865 57 4 1 1.38861e-08 
-0.429428 -0.675678 0.0251779 0.0025 0.545316 0.427895 1.96167 0.00916899 58 5 1 8.21811e-08 
-0.424843 -0.675678 -0.044781 0.0025 0.545365 0.427952 1.96173 0.00916818 59 4 1 2.00479e-07 
-0.42026 -0.675255 -0.129328 0.0025 0.545575 0.428183 1.96203 0.00916464 60 4 1 2.1419e-07 
-0.415679 -0.674569 -0.173786 0.0025 0.545961 0.428613 1.96258 0.00915816 61 4 1 4.05865e-07 
-0.411102 -0.6734 -0.377933 0.0025 0.546666 0.429403 1.96359 0.00914636 62 4 1 8.86621e-07 
-0.406532 -0.670908 -0.774426 0.0025 0.54802 0.430901 1.96553 0.00912376 63 4 1 1.24256e-06 
-0.401978 -0.666664 -1.16157 0.0025 0.550198 0.433295 1.96865 0.00908764 64 4 1 1.25857e-06 
-0.397445 -0.661086 -1.41756 0.0025 0.553083 0.436471 1.97277 0.00904024 65 4 1 1.19763e-06 
-0.392938 -0.654584 -1.61516 0.0025 0.556503 0.440253 1.97764 0.00898468 66 4 1 1.34593e-06 
-0.38846 -0.647196 -1.8646 0.0025 0.560438 0.44462 1.98322 0.00892159 67 4 1 1.62363e-06 
-0.384016 -0.638758 -2.13919 0.0025 0.564944 0.449635 1.98958 0.00885043 68 4 1 1.88711e-06 
-0.379609 -0.629247 -2.42503 0.0025 0.570043 0.455325 1.99674 0.00877127 69 4 1 2.07724e-06 
-0.375244 -0.618727 -2.67953 0.0025 0.575697 0.461654 2.00464 0.00868512 70 4 1 2.0656e-06 
-0.370924 -0.607505 -2.82644 0.0025 0.581763 0.46847 2.01306 0.00859456 71 4 1 1.93532e-06 
-0.36665 -0.595981 -2.90825 0.0025 0.588063 0.47558 2.02175 0.00850248 72 4 1 1.75941e-06 
-0.362421 -0.584432 -2.9123 0.0025 0.594446 0.482817 2.0305 0.00841119 73 4 1 1.61448e-06 
-0.358238 -0.573024 -2.91169 0.0025 0.600817 0.490073 2.03917 0.008322 74 4 1 1.48435e-06 
-0.354099 -0.561849 -2.86914 0.0025 0.60712 0.497282 2.0477 0.00823561 75 4 1 1.35081e-06 
-0.350002 -0.550976 -2.82181 0.0025 0.613308 0.504392 2.05602 0.00815251 76 4 1 1.2625e-06 
-0.345946 -0.540418 -2.77358 0.0025 0.619374 0.511389 2.06413 0.00807267 77 4 1 1.20354e-06 
-0.341929 -0.530116 -2.73788 0.0025 0.625325 0.51828 2.07204 0.00799584 78 4 1 1.13201e-06 
-0.33795 -0.520107 -2.68392 0.0025 0.631161 0.525064 2.07975 0.0079219 79 4 1 1.09821e-06 
-0.334007 -0.510351 -2.66347 0.0025 0.636901 0.531762 2.08729 0.00785052 80 4 1 1.09906e-06 
-0.3301 -0.500779 -2.64666 0.0025 0.642579 0.538412 2.09471 0.00778114 81 4 1 1.0989e-06 
-0.326226 -0.491312 -2.64523 0.0025 0.648223 0.545045 2.10205 0.0077134 82 4 1 1.14019e-06 
-0.322386 -0.481912 -2.67122 0.0025 0.653876 0.551714 2.10936 0.00764671 83 4 1 1.2327e-06 
-0.318579 -0.472432 -2.74176 0.0025 0.659605 0.558495 2.11673 0.00758029 84 4 1 1.29524e-06 
-0.314806 -0.462828 -2.80095 0.0025 0.665444 0.565429 2.12421 0.00751378 85 4 1 1.3435e-06 
-0.311065 -0.453082 -2.88262 0.0025 0.671407 0.572535 2.1318 0.00744705 86 4 1 1.37515e-06 
-0.307358 -0.443223 -2.94399 0.0025 0.677495 0.579815 2.13951 0.00738013 87 4 1 1.40181e-06 
-0.303685 -0.433231 -3.0246 0.0025 0.683703 0.587266 2.14733 0.00731312 88 4 1 1.39303e-06 
-0.300045 -0.423112 -3.06457 0.0025 0.690008 0.594859 2.15523 0.00724629 89 4 1 1.32858e-06 
-0.296438 -0.413056 -3.08064 0.0025 0.696357 0.602534 2.16313 0.00718023 90 4 1 1.32024e-06 
-0.292865 -0.402986 -3.12008 0.0025 0.70274 0.61028 2.17104 0.00711501 91 4 1 1.29726e-06 
-0.289323 -0.392944 -3.1293 0.0025 0.709149 0.618084 2.17894 0.00705071 92 4 1 1.25176e-06 
-0.285814 -0.383016 -3.13789 0.0025 0.715557 0.625918 2.18679 0.00698756 93 4 1 1.24913e-06 
-0.282336 -0.373099 -3.16244 0.0025 0.721973 0.633788 2.19462 0.00692547 94 4 1 1.20126e-06 
-0.278888 -0.363308 -3.14652 0.0025 0.728378 0.641672 2.20238 0.00686457 95 4 1 1.18063e-06 
-0.275471 -0.353613 -3.16879 0.0025 0.734767 0.649566 2.21009 0.00680488 96 4 1 1.16129e-06 
-0.272083 -0.343978 -3.15849 0.0025 0.741145 0.657473 2.21774 0.00674632 97 4 1 1.11797e-06 
-0.268724 -0.334491 -3.15642 0.0025 0.747495 0.665374 2.22532 0.006689 98 4 1 1.142e-06 
-0.265394 -0.325005 -3.19056 0.0025 0.753849 0.673305 2.23287 0.00663263 99 4 1 1.10317e-06 
-0.262092 -0.315622 -3.16891 0.0025 0.760193 0.681249 2.24037 0.00657727 100 4 1 1.0611e-06 
-0.258817 -0.306368 -3.175 0.0025 0.766508 0.689187 2.24779 0.00652309 101 4 1 1.08701e-06 
-0.255568 -0.297138 -3.2029 0.0025 0.772827 0.697152 2.25518 0.00646975 102 4 1 1.03342e-06 
-0.252347 -0.287987 -3.17277 0.0025 0.779125 0.705117 2.26252 0.00641746 103 4 1 9.82798e-07 
-0.249151 -0.27902 -3.1644 0.0025 0.785379 0.713058 2.26976 0.00636635 104 4 1 1.05954e-06 
-0.24598 -0.270023 -3.2345 0.0025 0.791658 0.72105 2.277 0.00631586 105 4 1 1.01181e-06 
-0.242835 -0.261068 -3.19243 0.0025 0.797938 0.729068 2.28421 0.00626615 106 4 1 9.21868e-07 
-0.239714 -0.252295 -3.17573 0.0025 0.804164 0.737046 2.29132 0.00621764 107 4 1 9.89709e-07 
-0.236617 -0.243568 -3.23141 0.0025 0.810397 0.745057 2.29841 0.00616982 108 4 1 9.93803e-07 
-0.233544 -0.234789 -3.23612 0.0025 0.816651 0.753115 2.30549 0.00612256 109 4 1 8.49233e-07 
-0.230495 -0.226227 -3.1469 0.0025 0.822832 0.761109 2.31245 0.00607657 110 4 1 8.99479e-07 
-0.227468 -0.21779 -3.22441 0.0025 0.828988 0.769097 2.31936 0.00603145 111 4 1 9.84948e-07 
-0.224463 -0.20922 -3.25611 0.0025 0.8352 0.777173 2.32629 0.00598659 112 4 1 8.67443e-07 
-0.221481 -0.200779 -3.20421 0.0025 0.841383 0.785237 2.33317 0.0059426 113 4 1 8.09565e-07 
-0.21852 -0.192523 -3.1832 0.0025 0.847503 0.793249 2.33994 0.00589968 114 4 1 9.00447e-07 
-0.215581 -0.184275 -3.26058 0.0025 0.853645 0.80131 2.34671 0.00585724 115 4 1 9.356e-07 
-0.212663 -0.175922 -3.29246 0.0025 0.859839 0.809456 2.35351 0.00581504 116 4 1 7.3551e-07 
-0.209766 -0.167797 -3.14794 0.0025 0.865942 0.817509 2.36017 0.00577406 117 4 1 7.11593e-07 
-0.206889 -0.159931 -3.17042 0.0025 0.87195 0.82547 2.3667 0.00573428 118 4 1 9.50251e-07 
-0.204032 -0.151865 -3.33483 0.0025 0.878062 0.833581 2.37333 0.00569436 119 4 1 8.76038e-07 
-0.201194 -0.143688 -3.27325 0.0025 0.884226 0.841774 2.37998 0.00565466 120 4 1 5.89464e-07 
-0.198377 -0.135931 -3.09522 0.0025 0.890222 0.849779 2.38642 0.00561658 121 4 1 7.37833e-07 
-0.195578 -0.128315 -3.23854 0.0025 0.896181 0.857766 2.39279 0.00557923 122 4 1 1.00743e-06 
-0.192798 -0.120299 -3.41355 0.0025 0.902328 0.866006 2.39935 0.00554122 123 4 1 7.30284e-07 
-0.190037 -0.11236 -3.21553 0.0025 0.908442 0.874218 2.40584 0.00550393 124 4 1 4.29909e-07 
-0.187294 -0.105054 -3.02844 0.0025 0.91429 0.882117 2.41202 0.00546873 125 4 1 7.46032e-07 
-0.184568 -0.0976977 -3.26675 0.0025 0.920152 0.890058 2.41819 0.00543389 126 4 1 9.99666e-07 
-0.18186 -0.0898916 -3.4164 0.0025 0.926247 0.89831 2.42459 0.00539813 127 4 1 6.30096e-07 
-0.17917 -0.0822553 -3.17102 0.0025 0.932269 0.906486 2.43088 0.00536326 128 4 1 4.09421e-07 
-0.176496 -0.0751917 -3.04964 0.0025 0.938041 0.914366 2.43688 0.00533026 129 4 1 7.66154e-07 
-0.173839 -0.0679649 -3.30747 0.0025 0.943878 0.92235 2.44294 0.0052973 130 4 1 8.93634e-07 
-0.171199 -0.0604005 -3.36612 0.0025 0.949898 0.930581 2.44917 0.00526372 131 4 1 4.78592e-07 
-0.168575 -0.0531622 -3.07632 0.0025 0.95576 0.938625 2.4552 0.00523144 132 4 1 4.36051e-07 
-0.165967 -0.0463792 -3.10256 0.0025 0.96143 0.946447 2.46101 0.00520058 133 4 1 8.35957e-07 
-0.163375 -0.0392132 -3.3906 0.0025 0.967248 0.954469 2.46697 0.00516931 134 4 1 5.15632e-07 
-0.160798 -0.0320487 -3.02542 0.0025 0.972974 0.962361 2.4728 0.00513888 135 4 1 -1.32559e-07 
-0.158236 -0.0261209 -2.45219 0.0025 0.978124 0.969525 2.47799 0.00511183 136 4 1 8.31488e-07 
-0.155686 -0.0200492 -3.39815 0.0025 0.983522 0.97708 2.48345 0.00508377 137 4 1 2.03242e-06 
-0.153152 -0.0115439 -4.41651 0.0025 0.990075 0.986142 2.49013 0.00505012 138 4 1 -2.19531e-07 
-0.150636 -0.00388826 -2.41282 0.0025 0.995899 0.99417 2.49599 0.00502059 139 4 1 -2.24677e-06 
-0.148131 -0.000969762 -0.607934 0.0025 0.99929 0.999015 2.49926 0.00500355 140 4 1 1.01106e-06 
-0.145633 0.00274995 -3.34781 0.0025 1.00322 1.00466 2.50319 0.00498393 141 4 1 3.63586e-06 
-0.143148 0.0121931 -5.18786 0.0025 1.00994 1.01394 2.51002 0.0049508 142 4 1 -8.69521e-07 
-0.140682 0.019618 -1.67063 0.0025 1.0155 1.02162 2.51555 0.00492369 143 4 1 -3.53217e-06 
-0.138224 0.0204039 0.456163 0.0025 1.01729 1.02427 2.51719 0.00491503 144 4 1 1.92221e-07 
-0.135767 0.0216792 -1.88489 0.0025 1.01884 1.02654 2.51874 0.00490754 145 4 1 1.11613e-06 
-0.133316 0.0258121 -1.54169 0.0025 1.02138 1.03001 2.52133 0.00489531 146 4 1 -1.53053e-06 
-0.130871 0.0268139 0.0943442 0.0025 1.02236 1.03138 2.52227 0.00489062 147 3 1 -1.47878e-06 
-0.128426 0.0258832 0.628568 0.0025 1.02156 1.03029 2.52146 0.0048945 148 4 1 -5.92613e-07 
-0.125977 0.0241039 0.957277 0.0025 1.01999 1.02809 2.5199 0.00490201 149 4 1 -2.64656e-07 
-0.123524 0.0218619 1.13675 0.0025 1.01805 1.02536 2.51798 0.00491136 150 4 1 -7.91036e-08 
-0.121065 0.0193834 1.22301 0.0025 1.01593 1.02238 2.51587 0.0049216 151 4 1 4.45883e-08 
-0.118602 0.0168276 1.23854 0.0025 1.01377 1.01934 2.51373 0.00493209 152 4 1 1.29409e-07 
-0.116133 0.0143138 1.20123 0.0025 1.01166 1.01638 2.51163 0.00494236 153 4 1 1.84967e-07 
-0.11366 0.0119305 1.12532 0.0025 1.00968 1.01359 2.50966 0.00495206 154 4 1 2.17622e-07 
-0.111181 0.00974141 1.02256 0.0025 1.00787 1.01105 2.50786 0.00496094 155 4 1 2.32225e-07 
-0.108699 0.00778827 0.903004 0.0025 1.00627 1.0088 2.50626 0.00496883 156 4 1 2.32611e-07 
-0.106212 0.006094 0.775527 0.0025 1.00489 1.00686 2.50488 0.00497566 157 4 1 2.22e-07 
-0.103723 0.00466453 0.647897 0.0025 1.00373 1.00524 2.50372 0.00498141 158 4 1 2.03359e-07 
-0.101231 0.00349137 0.526561 0.0025 1.00279 1.00391 2.50278 0.00498611 159 4 1 1.79514e-07 
-0.0987369 0.0025547 0.416361 0.0025 1.00203 1.00285 2.50203 0.00498986 160 4 1 1.53089e-07 
-0.0962412 0.00182704 0.320372 0.0025 1.00145 1.00204 2.50145 0.00499276 161 4 1 1.26347e-07 
-0.0937442 0.00127685 0.239945 0.0025 1.00101 1.00142 2.50101 0.00499495 162 4 1 1.01054e-07 
-0.0912462 0.000871843 0.174972 0.0025 1.00069 1.00097 2.50069 0.00499656 163 4 1 7.84096e-08 
-0.0887476 0.000581501 0.124262 0.0025 1.00046 1.00065 2.50046 0.00499771 164 4 1 5.90729e-08 
-0.0862485 0.00037875 0.0859608 0.0025 1.0003 1.00042 2.5003 0.00499851 165 4 1 4.32408e-08 
-0.0837491 0.000240813 0.0579286 0.0025 1.00019 1.00027 2.50019 0.00499905 166 4 1 3.07673e-08 
-0.0812495 0.000149386 0.0380267 0.0025 1.00012 1.00017 2.50012 0.00499941 167 4 1 2.12865e-08 
-0.0787497 9.03552e-05 0.0243103 0.0025 1.00007 1.0001 2.50007 0.00499964 168 4 1 1.43216e-08 
-0.0762498 5.324e-05 0.0151292 0.0025 1.00004 1.00006 2.50004 0.00499979 169 4 1 9.36963e-09 
-0.0737499 3.05275e-05 0.00915982 0.0025 1.00002 1.00003 2.50002 0.00499988 170 4 1 5.95915e-09 
-0.07125 1.70104e-05 0.0053903 0.0025 1.00001 1.00002 2.50001 0.00499993 171 4 1 3.6827e-09 
-0.06875 9.19501e-06 0.00307942 0.0025 1.00001 1.00001 2.50001 0.00499996 172 4 1 2.20977e-09 
-0.06625 4.81109e-06 0.00170516 0.0025 1 1.00001 2.5 0.00499998 173 4 1 1.28609e-09 
-0.06375 2.42971e-06 0.000913271 0.0025 1 1 2.5 0.00499999 174 4 1 7.24976e-10 
-0.06125 1.17997e-06 0.000471834 0.0025 1 1 2.5 0.005 175 4 1 3.95073e-10 
-0.05875 5.483e-07 0.000234294 0.0025 1 1 2.5 0.005 176 4 1 2.07605e-10 
-0.05625 2.42097e-07 0.000111268 0.0025 1 1 2.5 0.005 177 4 1 1.04842e-10 
-0.05375 1.00556e-07 5.01866e-05 0.0025 1 1 2.5 0.005 178 4 1 5.06474e-11 
-0.05125 3.86819e-08 2.12781e-05 0.0025 1 1 2.5 0.005 179 4 1 2.3252e-11 
-0.04875 1.34242e-08 8.34141e-06 0.0025 1 1 2.5 0.005 180 4 1 1.00472e-11 
-0.04625 3.99518e-09 2.93621e-06 0.0025 1 1 2.5 0.005 181 4 1 4.02419e-12 
-0.04375 9.00199e-10 8.73275e-07 0.0025 1 1 2.5 0.005 182 4 1 1.44997e-12 
-0.04125 8.44592e-11 1.88036e-07 0.0025 1 1 2.5 0.005 183 4 1 4.61233e-13 
-0.03875 -2.22379e-11 -3.01741e-08 0.0025 1 1 2.5 0.005 184 5 1 9.96973e-14 
-0.03625 3.75797e-11 -1.98268e-08 0.0025 1 1 2.5 0.005 185 4 1 -1.89054e-14 
-0.03375 4.36535e-11 3.15805e-09 0.0025 1 1 2.5 0.005 186 3 1 -1.21009e-14 
-0.03125 3.08223e-11 7.5014e-09 0.0025 1 1 2.5 0.005 187 4 1 2.02505e-17 
-0.02875 1.75937e-11 5.96918e-09 0.0025 1 1 2.5 0.005 188 4 1 2.68408e-15 
-0.02625 8.66863e-12 3.64929e-09 0.0025 1 1 2.5 0.005 189 4 1 2.51745e-15 
-0.02375 3.74203e-12 1.86691e-09 0.0025 1 1 2.5 0.005 190 4 1 1.6108e-15 
-0.02125 1.39987e-12 8.31619e-10 0.0025 1 1 2.5 0.005 191 4 1 8.56915e-16 
-0.01875 4.32053e-13 3.18437e-10 0.0025 1 1 2.5 0.005 192 4 1 3.93996e-16 
-0.01625 9.59112e-14 9.66338e-11 0.0025 1 1 2.5 0.005 193 4 1 1.47082e-16 
-0.01375 5.07679e-15 2.21121e-11 0.0025 1 1 2.5 0.005 194 4 1 5.96856e-17 
-0.01125 -4.69867e-15 -4.83169e-12 0.0025 1 1 2.5 0.005 195 5 1 3.55271e-18 
-0.00875 3.54456e-15 -3.06954e-12 0.0025 1 1 2.5 0.005 196 4 1 2.84217e-18 
-0.00625 4.22415e-15 6.82121e-13 0.0025 1 1 2.5 0.005 197 3 1 -3.90799e-18 
-0.00375 2.85845e-15 9.66338e-13 0.0025 1 1 2.5 0.005 198 4 1 1.06581e-18 
-0.00125 1.37898e-15 3.97904e-13 0.0025 1 1 2.5 0.005 199 4 1 1.06581e-18 
0.00125 3.03581e-16 -8.87469e-29 0.0025 1 1 2.5 0.005 200 3 1 1.77636e-18 
0.00375 -2.50962e-16 -1.13687e-13 0.0025 1 1 2.5 0.005 201 3 1 -3.55271e-19 
0.00625 -1.09194e-16 4.54747e-13 0.0025 1 1 2.5 0.005 202 4 1 -7.10543e-19 
0.00875 2.68097e-15 1.81899e-12 0.0025 1 1 2.5 0.005 203 4 1 -1.77636e-18 
0.01125 9.69674e-15 4.26326e-12 0.0025 1 1 2.5 0.005 204 5 1 1.24345e-17 
0.01375 -1.48067e-15 -2.15437e-11 0.0025 1 1 2.5 0.005 205 4 1 4.76064e-17 
0.01625 -9.03352e-14 -9.65201e-11 0.0025 1 1 2.5 0.005 206 4 1 1.5099e-16 
0.01875 -4.26876e-13 -3.17868e-10 0.0025 1 1 2.5 0.005 207 4 1 3.93285e-16 
0.02125 -1.39194e-12 -8.29857e-10 0.0025 1 1 2.5 0.005 208 4 1 8.53362e-16 
0.02375 -3.73423e-12 -1.86969e-09 0.0025 1 1 2.5 0.005 209 4 1 1.63176e-15 
0.02625 -8.66e-12 -3.6473e-09 0.0025 1 1 2.5 0.005 210 4 1 2.48086e-15 
0.02875 -1.75859e-11 -5.97072e-09 0.0025 1 1 2.5 0.005 211 4 1 2.73417e-15 
0.03125 -3.08145e-11 -7.49901e-09 0.0025 1 1 2.5 0.005 212 4 1 -6.75015e-18 
0.03375 -4.36413e-11 -3.15788e-09 0.0025 1 1 2.5 0.005 213 3 1 -1.21165e-14 
0.03625 -3.75691e-11 1.98289e-08 0.0025 1 1 2.5 0.005 214 4 1 -1.88948e-14 
0.03875 2.22457e-11 3.01685e-08 0.0025 1 1 2.5 0.005 215 5 1 9.97115e-14 
0.04125 -8.44601e-11 -1.88035e-07 0.0025 1 1 2.5 0.005 216 4 1 4.61222e-13 
0.04375 -9.00196e-10 -8.73275e-07 0.0025 1 1 2.5 0.005 217 4 1 1.44997e-12 
0.04625 -3.99517e-09 -2.93621e-06 0.0025 1 1 2.5 0.005 218 4 1 4.0242e-12 
0.04875 -1.34242e-08 -8.34141e-06 0.0025 1 1 2.5 0.005 219 4 1 1.00472e-11 
0.05125 -3.86819e-08 -2.12781e-05 0.0025 1 1 2.5 0.005 220 4 1 2.3252e-11 
0.05375 -1.00556e-07 -5.01866e-05 0.0025 1 1 2.5 0.005 221 4 1 5.06474e-11 
