# Time [s]: 0.29925
# Columns: pos [m], vel [m/s], acc [m/s^2], mass [kg], dens [kg/m^3], pres [Pa], ene [J/kg], sml [m], id, neighbor, alpha, gradh, ...additional?
1.3008 -0.673103 0.000475617 0.0025 0.511048 0.432723 2.1525 0.00978382 0 4 1 -0.000134226 
1.30558 -0.673104 0.00051254 0.0025 0.536904 0.426185 1.95004 0.00931265 1 4 1 0.000179251 
1.31012 -0.673106 0.0005441 0.0025 0.548233 0.430854 1.96849 0.00912021 2 3 1 -1.90587e-05 
1.3147 -0.673108 0.000575633 0.0025 0.545967 0.429189 1.96464 0.00915806 3 5 1 3.48583e-06 
1.31928 -0.67311 0.000608615 0.0025 0.546364 0.429343 1.96457 0.0091514 4 4 1 -1.38754e-07 
1.32385 -0.673112 0.000642012 0.0025 0.546374 0.429312 1.96434 0.00915124 5 4 1 1.43648e-07 
1.32843 -0.673115 0.000673877 0.0025 0.546396 0.429309 1.96428 0.00915087 6 4 1 -3.59194e-09 
1.33301 -0.673117 0.000704583 0.0025 0.546408 0.429305 1.96421 0.00915067 7 4 1 8.15314e-09 
1.33758 -0.67312 0.000737905 0.0025 0.546421 0.429303 1.96416 0.00915046 8 4 1 4.67444e-09 
1.34216 -0.673123 0.000778597 0.0025 0.546432 0.429301 1.96411 0.00915027 9 4 1 5.36848e-09 
1.34673 -0.673126 0.000828415 0.0025 0.546442 0.429299 1.96407 0.00915011 10 4 1 -2.36827e-09 
1.35131 -0.67313 0.00088454 0.0025 0.546451 0.429296 1.96402 0.00914995 11 4 1 4.58442e-09 
1.35588 -0.673134 0.000942389 0.0025 0.546459 0.429294 1.96398 0.00914981 12 4 1 2.7001e-09 
1.36046 -0.673138 0.00100054 0.0025 0.546466 0.429292 1.96394 0.00914969 13 4 1 3.41625e-09 
1.36503 -0.673142 0.00106305 0.0025 0.546472 0.429289 1.96391 0.0091496 14 4 1 1.95118e-09 
1.36961 -0.673147 0.0011366 0.0025 0.546477 0.429286 1.96388 0.00914951 15 4 1 -1.77586e-09 
1.37418 -0.673152 0.00122462 0.0025 0.546482 0.429283 1.96385 0.00914943 16 4 1 4.67753e-09 
1.37875 -0.673158 0.00132372 0.0025 0.546486 0.42928 1.96382 0.00914937 17 4 1 1.23424e-09 
1.38333 -0.673164 0.001426 0.0025 0.546489 0.429276 1.96379 0.00914932 18 4 1 -1.44787e-09 
1.3879 -0.673171 0.00152605 0.0025 0.546491 0.429272 1.96377 0.00914928 19 4 1 2.44802e-09 
1.39248 -0.673178 0.0016274 0.0025 0.546493 0.429268 1.96374 0.00914925 20 4 1 9.09619e-10 
1.39705 -0.673185 0.00174234 0.0025 0.546494 0.429264 1.96372 0.00914924 21 4 1 8.9577e-10 
1.40163 -0.673194 0.00188364 0.0025 0.546494 0.429259 1.96369 0.00914923 22 3 1 6.99829e-10 
1.4062 -0.673203 0.00205294 0.0025 0.546493 0.429254 1.96367 0.00914924 23 4 1 -5.91049e-10 
1.41078 -0.673212 0.00223634 0.0025 0.546492 0.429248 1.96365 0.00914926 24 4 1 1.02806e-09 
1.41535 -0.673223 0.00241468 0.0025 0.546491 0.429242 1.96363 0.00914929 25 4 1 2.9302e-10 
1.41993 -0.673234 0.0025837 0.0025 0.546488 0.429236 1.96361 0.00914933 26 4 1 -7.98624e-10 
1.4245 -0.673246 0.00276599 0.0025 0.546485 0.429229 1.96359 0.00914938 27 4 1 7.35106e-10 
1.42908 -0.67326 0.00299862 0.0025 0.546481 0.429221 1.96357 0.00914945 28 4 1 2.46708e-10 
1.43365 -0.673275 0.0033022 0.0025 0.546476 0.429213 1.96355 0.00914953 29 4 1 -1.55957e-09 
1.43823 -0.67329 0.00365987 0.0025 0.546471 0.429204 1.96352 0.00914962 30 4 1 -4.26733e-10 
1.4428 -0.673307 0.00402994 0.0025 0.546464 0.429194 1.9635 0.00914973 31 4 1 9.74446e-10 
1.44738 -0.673326 0.00438402 0.0025 0.546457 0.429183 1.96348 0.00914986 32 4 1 -1.86226e-09 
1.45195 -0.673347 0.00473654 0.0025 0.546448 0.429171 1.96346 0.00915 33 4 1 -1.88797e-09 
1.45653 -0.673369 0.00513948 0.0025 0.546438 0.429158 1.96343 0.00915016 34 4 1 8.84816e-10 
1.4611 -0.673395 0.0056475 0.0025 0.546427 0.429143 1.9634 0.00915035 35 4 1 -1.73072e-09 
1.46568 -0.673423 0.0062825 0.0025 0.546415 0.429127 1.96338 0.00915055 36 4 1 -2.73721e-09 
1.47025 -0.673453 0.00702566 0.0025 0.546401 0.42911 1.96335 0.00915079 37 4 1 -7.35132e-10 
1.47483 -0.673487 0.00784341 0.0025 0.546385 0.42909 1.96332 0.00915106 38 4 1 -2.31001e-09 
1.4794 -0.673524 0.00872501 0.0025 0.546367 0.429068 1.96328 0.00915137 39 4 1 -3.36926e-09 
1.48398 -0.673566 0.00969747 0.0025 0.546346 0.429044 1.96324 0.00915171 40 4 1 -2.22774e-09 
1.48855 -0.673612 0.010804 0.0025 0.546323 0.429017 1.9632 0.0091521 41 4 1 -2.89822e-09 
1.49313 -0.673664 0.0120716 0.0025 0.546296 0.428986 1.96316 0.00915254 42 4 1 -4.43658e-09 
1.49771 -0.673723 0.0135124 0.0025 0.546267 0.428952 1.96311 0.00915304 43 4 1 -4.34333e-09 
-0.497717 -0.673789 0.0151615 0.0025 0.546233 0.428914 1.96305 0.0091536 44 4 1 -3.99154e-09 
-0.49314 -0.673863 0.017087 0.0025 0.546195 0.428871 1.96299 0.00915424 45 4 1 -6.07051e-09 
-0.488563 -0.673947 0.0193294 0.0025 0.546152 0.428822 1.96293 0.00915495 46 4 1 -7.16222e-09 
-0.483985 -0.67404 0.0218082 0.0025 0.546104 0.428768 1.96285 0.00915577 47 4 1 -6.27105e-09 
-0.479407 -0.674145 0.0242703 0.0025 0.546049 0.428707 1.96277 0.00915668 48 4 1 -6.31829e-09 
-0.474829 -0.674263 0.0264276 0.0025 0.545989 0.42864 1.96268 0.00915769 49 4 1 -6.31592e-09 
-0.470249 -0.674396 0.0283823 0.0025 0.545924 0.428567 1.96258 0.00915879 50 4 1 -5.33412e-09 
-0.46567 -0.674546 0.0307499 0.0025 0.545854 0.428489 1.96247 0.00915996 51 4 1 -4.60344e-09 
-0.461089 -0.674707 0.0337629 0.0025 0.545779 0.428406 1.96236 0.00916121 52 4 1 -5.27398e-09 
-0.456509 -0.674873 0.0364419 0.0025 0.5457 0.428318 1.96224 0.00916254 53 4 1 -3.5795e-09 
-0.451927 -0.675041 0.0375027 0.0025 0.545618 0.428227 1.96212 0.00916392 54 4 1 2.31543e-09 
-0.447345 -0.675206 0.0367529 0.0025 0.545538 0.428138 1.962 0.00916527 55 4 1 8.70308e-09 
-0.442762 -0.675359 0.034348 0.0025 0.545463 0.428055 1.96189 0.00916652 56 4 1 1.3622e-08 
-0.438178 -0.67549 0.0293516 0.0025 0.5454 0.427986 1.96179 0.00916758 57 4 1 2.34096e-08 
-0.433594 -0.675589 0.0198953 0.0025 0.545357 0.427937 1.96173 0.0091683 58 4 1 2.26502e-08 
-0.42901 -0.675632 0.0125912 0.0025 0.545332 0.42791 1.96169 0.00916872 59 5 1 3.64317e-08 
-0.424425 -0.675685 0.00498017 0.0025 0.545339 0.427922 1.96169 0.00916861 60 4 1 1.60619e-07 
-0.419841 -0.67545 -0.106932 0.0025 0.545478 0.428076 1.96189 0.00916627 61 4 1 2.25399e-07 
-0.415259 -0.674836 -0.158083 0.0025 0.5458 0.42843 1.96235 0.00916087 62 4 1 2.7947e-07 
-0.41068 -0.673922 -0.26584 0.0025 0.546345 0.429041 1.96313 0.00915172 63 4 1 6.41139e-07 
-0.406107 -0.672112 -0.58075 0.0025 0.547375 0.430187 1.9646 0.00913451 64 4 1 1.10185e-06 
-0.401546 -0.668656 -0.993891 0.0025 0.549173 0.432168 1.96718 0.0091046 65 4 1 1.2783e-06 
-0.397003 -0.663641 -1.31426 0.0025 0.551753 0.435004 1.97087 0.00906203 66 4 1 1.20223e-06 
-0.392484 -0.657547 -1.51759 0.0025 0.554931 0.43851 1.9754 0.00901014 67 4 1 1.22051e-06 
-0.387992 -0.650637 -1.7287 0.0025 0.558598 0.442574 1.98061 0.00895098 68 4 1 1.43192e-06 
-0.383533 -0.642794 -1.978 0.0025 0.56278 0.447221 1.98652 0.00888447 69 4 1 1.68733e-06 
-0.379108 -0.633939 -2.24295 0.0025 0.567514 0.452499 1.99319 0.00881035 70 4 1 1.92392e-06 
-0.374722 -0.624083 -2.51506 0.0025 0.572808 0.458416 2.00061 0.00872892 71 4 1 2.01259e-06 
-0.370379 -0.613368 -2.70566 0.0025 0.578577 0.464885 2.00864 0.00864189 72 4 1 1.94752e-06 
-0.36608 -0.602186 -2.82658 0.0025 0.584663 0.471737 2.01707 0.00855193 73 4 1 1.78755e-06 
-0.361827 -0.590831 -2.8569 0.0025 0.590902 0.478793 2.02565 0.00846164 74 4 1 1.62485e-06 
-0.357618 -0.579556 -2.86237 0.0025 0.597169 0.485913 2.03421 0.00837284 75 4 1 1.4976e-06 
-0.353453 -0.568441 -2.83723 0.0025 0.603397 0.493019 2.04267 0.00828642 76 4 1 1.37604e-06 
-0.349331 -0.557583 -2.80016 0.0025 0.609538 0.500056 2.05095 0.00820294 77 4 1 1.26657e-06 
-0.34525 -0.547034 -2.74745 0.0025 0.615564 0.50699 2.05904 0.00812263 78 4 1 1.20443e-06 
-0.341209 -0.536776 -2.71813 0.0025 0.62148 0.513823 2.06693 0.00804532 79 4 1 1.13807e-06 
-0.337205 -0.526762 -2.66644 0.0025 0.627286 0.520556 2.07463 0.00797084 80 4 1 1.07451e-06 
-0.333238 -0.517015 -2.62997 0.0025 0.632982 0.527186 2.08214 0.00789911 81 4 1 1.05594e-06 
-0.329306 -0.50749 -2.60479 0.0025 0.638595 0.533742 2.0895 0.00782969 82 4 1 1.06078e-06 
-0.325408 -0.498111 -2.60093 0.0025 0.644157 0.540262 2.09676 0.00776209 83 4 1 1.06845e-06 
-0.321543 -0.488833 -2.59836 0.0025 0.649697 0.546781 2.10396 0.0076959 84 4 1 1.12497e-06 
-0.317712 -0.479608 -2.6446 0.0025 0.655264 0.553354 2.11115 0.00763051 85 4 1 1.19912e-06 
-0.313913 -0.470281 -2.69738 0.0025 0.660911 0.560043 2.1184 0.00756531 86 4 1 1.25504e-06 
-0.310146 -0.46084 -2.7692 0.0025 0.666665 0.566881 2.12576 0.00750002 87 4 1 1.30031e-06 
-0.306412 -0.451249 -2.83573 0.0025 0.672539 0.573884 2.13323 0.00743451 88 4 1 1.30944e-06 
-0.302712 -0.441568 -2.89078 0.0025 0.67852 0.581043 2.1408 0.00736898 89 4 1 1.35375e-06 
-0.299043 -0.431736 -2.97688 0.0025 0.684619 0.588367 2.14847 0.00730333 90 4 1 1.33438e-06 
-0.295408 -0.421832 -3.00268 0.0025 0.690808 0.595823 2.15622 0.0072379 91 4 1 1.26637e-06 
-0.291805 -0.411967 -3.0209 0.0025 0.69703 0.60335 2.16397 0.00717329 92 4 1 1.27779e-06 
-0.288235 -0.402107 -3.06608 0.0025 0.703293 0.610951 2.17172 0.00710941 93 4 1 1.23729e-06 
-0.284696 -0.392288 -3.05967 0.0025 0.709574 0.618602 2.17946 0.00704649 94 4 1 1.20185e-06 
-0.281188 -0.382567 -3.08236 0.0025 0.715853 0.626279 2.18715 0.00698468 95 4 1 1.19841e-06 
-0.277711 -0.372857 -3.09294 0.0025 0.72214 0.633992 2.19482 0.00692387 96 4 1 1.14141e-06 
-0.274264 -0.363268 -3.07894 0.0025 0.728407 0.641708 2.20241 0.0068643 97 4 1 1.14236e-06 
-0.270846 -0.353762 -3.10859 0.0025 0.734666 0.649441 2.20997 0.00680581 98 4 1 1.11114e-06 
-0.267458 -0.344321 -3.08762 0.0025 0.740913 0.657183 2.21746 0.00674843 99 4 1 1.07162e-06 
-0.264098 -0.335022 -3.09383 0.0025 0.747131 0.664919 2.22489 0.00669227 100 4 1 1.1006e-06 
-0.260766 -0.325742 -3.12232 0.0025 0.753355 0.672686 2.23228 0.00663698 101 4 1 1.06469e-06 
-0.257461 -0.316532 -3.10903 0.0025 0.759571 0.680469 2.23963 0.00658266 102 4 1 1.01448e-06 
-0.254183 -0.307459 -3.10196 0.0025 0.765757 0.688241 2.24691 0.00652948 103 4 1 1.0443e-06 
-0.250931 -0.29843 -3.13935 0.0025 0.771945 0.696039 2.25415 0.00647714 104 4 1 1.01155e-06 
-0.247706 -0.289424 -3.11758 0.0025 0.778125 0.703851 2.26135 0.0064257 105 4 1 9.40994e-07 
-0.244505 -0.280637 -3.09521 0.0025 0.784258 0.711631 2.26847 0.00637545 106 4 1 9.92262e-07 
-0.24133 -0.271841 -3.14775 0.0025 0.790395 0.71944 2.27555 0.00632595 107 4 1 1.00074e-06 
-0.238179 -0.263041 -3.15199 0.0025 0.796553 0.727296 2.28262 0.00627705 108 4 1 9.01399e-07 
-0.235053 -0.254391 -3.10645 0.0025 0.802667 0.735124 2.28962 0.00622923 109 4 1 9.03321e-07 
-0.23195 -0.245873 -3.13183 0.0025 0.808751 0.742941 2.29654 0.00618237 110 4 1 9.83892e-07 
-0.22887 -0.237255 -3.19476 0.0025 0.814877 0.750827 2.30349 0.00613589 111 4 1 8.67943e-07 
-0.225814 -0.228784 -3.10626 0.0025 0.820969 0.758695 2.31036 0.00609036 112 4 1 8.13426e-07 
-0.22278 -0.220515 -3.11797 0.0025 0.826994 0.766506 2.31712 0.006046 113 4 1 9.28635e-07 
-0.219768 -0.212187 -3.18534 0.0025 0.833055 0.774382 2.3239 0.00600201 114 4 1 9.0176e-07 
-0.216778 -0.20385 -3.17669 0.0025 0.83914 0.782308 2.33068 0.00595848 115 4 1 7.87312e-07 
-0.213809 -0.195664 -3.11985 0.0025 0.845166 0.790185 2.33736 0.005916 116 4 1 7.86705e-07 
-0.210862 -0.187644 -3.13155 0.0025 0.851148 0.798031 2.34396 0.00587442 117 4 1 9.082e-07 
-0.207935 -0.179506 -3.23364 0.0025 0.857188 0.805969 2.3506 0.00583302 118 4 1 8.38678e-07 
-0.205029 -0.171362 -3.17564 0.0025 0.86324 0.813938 2.35722 0.00579214 119 4 1 6.44888e-07 
-0.202143 -0.163545 -3.05971 0.0025 0.869161 0.821768 2.36367 0.00575268 120 4 1 7.55772e-07 
-0.199276 -0.155836 -3.15763 0.0025 0.875056 0.82959 2.37007 0.00571392 121 4 1 9.54101e-07 
-0.196429 -0.147855 -3.29502 0.0025 0.881089 0.837603 2.3766 0.0056748 122 4 1 7.48726e-07 
-0.193601 -0.139944 -3.14473 0.0025 0.8871 0.845604 2.38307 0.00563634 123 4 1 5.36962e-07 
-0.190792 -0.132458 -3.03411 0.0025 0.892928 0.853401 2.38931 0.00559955 124 4 1 7.96509e-07 
-0.188002 -0.124952 -3.23164 0.0025 0.898798 0.861274 2.39558 0.00556298 125 4 1 9.61664e-07 
-0.185229 -0.117037 -3.33786 0.0025 0.904848 0.869388 2.40203 0.00552579 126 4 1 5.99319e-07 
-0.182476 -0.109396 -3.08409 0.0025 0.910784 0.877375 2.40832 0.00548978 127 4 1 4.20313e-07 
-0.179739 -0.102285 -2.98571 0.0025 0.916474 0.885072 2.41432 0.00545569 128 4 1 7.8919e-07 
-0.17702 -0.0950487 -3.23712 0.0025 0.922247 0.892895 2.42039 0.00542154 129 4 1 9.44509e-07 
-0.174318 -0.0873583 -3.33976 0.0025 0.928233 0.901005 2.42667 0.00538658 130 4 1 5.54305e-07 
-0.171633 -0.07997 -3.07888 0.0025 0.934106 0.908988 2.4328 0.00535271 131 4 1 3.95754e-07 
-0.168965 -0.0730609 -2.99586 0.0025 0.939744 0.916691 2.43865 0.0053206 132 4 1 7.65805e-07 
-0.166313 -0.0660014 -3.25677 0.0025 0.945474 0.924533 2.44459 0.00528835 133 4 1 8.56936e-07 
-0.163677 -0.0585739 -3.30037 0.0025 0.95138 0.932612 2.45069 0.00525553 134 4 1 4.34012e-07 
-0.161057 -0.0515073 -3.00217 0.0025 0.957111 0.940481 2.45658 0.00522406 135 4 1 3.75033e-07 
-0.158453 -0.0449216 -2.99431 0.0025 0.962627 0.948096 2.46223 0.00519412 136 4 1 8.28227e-07 
-0.155863 -0.0379642 -3.34468 0.0025 0.968313 0.955945 2.46805 0.00516362 137 4 1 6.15153e-07 
-0.153289 -0.0308003 -3.07997 0.0025 0.974004 0.963787 2.47385 0.00513345 138 4 1 -2.1147e-07 
-0.150729 -0.0249015 -2.33 0.0025 0.979064 0.970818 2.47895 0.00510692 139 4 1 5.22624e-07 
-0.148182 -0.0193118 -3.07278 0.0025 0.984143 0.977942 2.48406 0.00508056 140 4 1 2.10369e-06 
-0.145649 -0.0112367 -4.43957 0.0025 0.990482 0.986731 2.49052 0.00504805 141 4 1 3.10826e-07 
-0.143134 -0.00306015 -2.82676 0.0025 0.996551 0.995081 2.49665 0.00501731 142 4 1 -2.41767e-06 
-0.140631 0.00018379 -0.418439 0.0025 1.00004 1.00003 2.50003 0.00499981 143 4 1 2.09408e-07 
-0.138134 0.00287073 -2.63243 0.0025 1.00336 1.00485 2.50331 0.00498325 144 4 1 3.74247e-06 
-0.135648 0.0114627 -5.22212 0.0025 1.00961 1.01352 2.50967 0.0049524 145 4 1 2.54766e-08 
-0.133182 0.0197134 -2.2768 0.0025 1.01556 1.0217 2.51561 0.00492341 146 4 1 -3.55921e-06 
-0.130725 0.0211667 0.438461 0.0025 1.01774 1.02488 2.51766 0.00491285 147 4 1 -5.00266e-07 
-0.128269 0.021842 -1.36699 0.0025 1.01896 1.0267 2.51886 0.00490694 148 4 1 9.85993e-07 
-0.125818 0.0252713 -1.39342 0.0025 1.02104 1.02954 2.52098 0.00489697 149 4 1 -1.16493e-06 
-0.123372 0.0262581 0.0430102 0.0025 1.02193 1.03078 2.52184 0.00489269 150 3 1 -1.34674e-06 
-0.120925 0.02545 0.559114 0.0025 1.02122 1.02981 2.52112 0.00489612 151 4 1 -5.83406e-07 
-0.118476 0.0238093 0.889031 0.0025 1.01976 1.02777 2.51968 0.00490311 152 4 1 -2.85748e-07 
-0.116022 0.0216836 1.08372 0.0025 1.01791 1.02517 2.51784 0.00491202 153 4 1 -1.04225e-07 
-0.113564 0.019293 1.18394 0.0025 1.01586 1.02228 2.51581 0.00492192 154 4 1 2.29884e-08 
-0.1111 0.0168007 1.21077 0.0025 1.01375 1.01932 2.51371 0.00493217 155 4 1 1.13186e-07 
-0.108631 0.0143322 1.18156 0.0025 1.01168 1.01641 2.51165 0.00494226 156 4 1 1.7326e-07 
-0.106158 0.0119811 1.11143 0.0025 1.00973 1.01366 2.50971 0.00495183 157 4 1 2.09039e-07 
-0.10368 0.00981449 1.01298 0.0025 1.00794 1.01114 2.50792 0.00496062 158 4 1 2.25557e-07 
-0.101197 0.007876 0.897009 0.0025 1.00635 1.00891 2.50634 0.00496846 159 4 1 2.27147e-07 
-0.0987111 0.00618949 0.772729 0.0025 1.00497 1.00698 2.50496 0.00497527 160 4 1 2.17484e-07 
-0.0962219 0.0047616 0.647955 0.0025 1.00381 1.00535 2.50381 0.00498101 161 4 1 1.99799e-07 
-0.0937301 0.00358472 0.529014 0.0025 1.00286 1.00402 2.50286 0.00498573 162 4 1 1.76984e-07 
-0.0912362 0.00264021 0.420603 0.0025 1.0021 1.00295 2.5021 0.00498951 163 4 1 1.51603e-07 
-0.0887406 0.00190198 0.325719 0.0025 1.00151 1.00212 2.50151 0.00499246 164 4 1 1.25816e-07 
-0.0862437 0.0013399 0.245738 0.0025 1.00106 1.00149 2.50106 0.00499469 165 4 1 1.01296e-07 
-0.0837459 0.000922886 0.18066 0.0025 1.00073 1.00103 2.50073 0.00499635 166 4 1 7.91979e-08 
-0.0812474 0.000621356 0.12945 0.0025 1.00049 1.00069 2.50049 0.00499755 167 4 1 6.01763e-08 
-0.0787484 0.000408817 0.0904183 0.0025 1.00032 1.00045 2.50032 0.00499839 168 4 1 4.44608e-08 
-0.076249 0.000262759 0.0615678 0.0025 1.00021 1.00029 2.50021 0.00499896 169 4 1 3.19555e-08 
-0.0737494 0.000164903 0.0408667 0.0025 1.00013 1.00018 2.50013 0.00499935 170 4 1 2.23483e-08 
-0.0712497 0.00010099 0.0264375 0.0025 1.00008 1.00011 2.50008 0.0049996 171 4 1 1.52098e-08 
-0.0687498 6.03088e-05 0.0166629 0.0025 1.00005 1.00007 2.50005 0.00499976 172 4 1 1.0073e-08 
-0.0662499 3.5085e-05 0.0102264 0.0025 1.00003 1.00004 2.50003 0.00499986 173 4 1 6.49037e-09 
-0.0637499 1.986e-05 0.00610665 0.0025 1.00002 1.00002 2.50002 0.00499992 174 4 1 4.06702e-09 
-0.06125 1.0922e-05 0.00354442 0.0025 1.00001 1.00001 2.50001 0.00499996 175 4 1 2.47693e-09 
-0.05875 5.82468e-06 0.00199693 0.0025 1 1.00001 2.5 0.00499998 176 4 1 1.46488e-09 
-0.05625 3.00499e-06 0.00109017 0.0025 1 1 2.5 0.00499999 177 4 1 8.40278e-10 
-0.05375 1.49509e-06 0.000575369 0.0025 1 1 2.5 0.00499999 178 4 1 4.66754e-10 
-0.05125 7.14454e-07 0.0002927 0.0025 1 1 2.5 0.005 179 4 1 2.50545e-10 
-0.04875 3.26106e-07 0.000142951 0.0025 1 1 2.5 0.005 180 4 1 1.29601e-10 
-0.04625 1.41071e-07 6.66569e-05 0.0025 1 1 2.5 0.005 181 4 1 6.43615e-11 
-0.04375 5.71755e-08 2.94431e-05 0.0025 1 1 2.5 0.005 182 4 1 3.0528e-11 
-0.04125 2.13182e-08 1.21736e-05 0.0025 1 1 2.5 0.005 183 4 1 1.37283e-11 
-0.03875 7.0825e-09 4.6207e-06 0.0025 1 1 2.5 0.005 184 4 1 5.78774e-12 
-0.03625 1.96386e-09 1.5518e-06 0.0025 1 1 2.5 0.005 185 4 1 2.2462e-12 
-0.03375 3.78221e-10 4.2379e-07 0.0025 1 1 2.5 0.005 186 4 1 7.77612e-13 
-0.03125 4.93246e-12 7.33297e-08 0.0025 1 1 2.5 0.005 187 4 1 2.30197e-13 
-0.02875 -6.35716e-13 -3.72122e-08 0.0025 1 1 2.5 0.005 188 5 1 3.3117e-14 
-0.02625 3.41402e-11 -6.0345e-09 0.0025 1 1 2.5 0.005 189 3 1 -1.85985e-14 
-0.02375 3.10645e-11 4.46374e-09 0.0025 1 1 2.5 0.005 190 4 1 -4.79083e-15 
-0.02125 2.02397e-11 5.56435e-09 0.0025 1 1 2.5 0.005 191 4 1 1.03491e-15 
-0.01875 1.10093e-11 4.02497e-09 0.0025 1 1 2.5 0.005 192 4 1 2.18634e-15 
-0.01625 5.21778e-12 2.30608e-09 0.0025 1 1 2.5 0.005 193 4 1 1.70672e-15 
-0.01375 2.1709e-12 1.13516e-09 0.0025 1 1 2.5 0.005 194 4 1 1.0381e-15 
-0.01125 7.77005e-13 4.84988e-10 0.0025 1 1 2.5 0.005 195 4 1 5.18696e-16 
-0.00875 2.24286e-13 1.75476e-10 0.0025 1 1 2.5 0.005 196 4 1 2.32703e-16 
-0.00625 4.24926e-14 5.07612e-11 0.0025 1 1 2.5 0.005 197 4 1 8.66862e-17 
-0.00375 -2.41733e-15 8.29914e-12 0.0025 1 1 2.5 0.005 198 4 1 2.59348e-17 
-0.00125 -1.00543e-15 -3.0127e-12 0.0025 1 1 2.5 0.005 199 4 1 7.10543e-19 
0.00125 8.76962e-15 4.26326e-12 0.0025 1 1 2.5 0.005 200 5 1 3.19744e-18 
0.00375 7.67081e-15 -8.75389e-12 0.0025 1 1 2.5 0.005 201 4 1 2.62901e-17 
0.00625 -3.80099e-14 -5.01359e-11 0.0025 1 1 2.5 0.005 202 4 1 8.63309e-17 
0.00875 -2.20408e-13 -1.75817e-10 0.0025 1 1 2.5 0.005 203 4 1 2.31282e-16 
0.01125 -7.71218e-13 -4.84476e-10 0.0025 1 1 2.5 0.005 204 4 1 5.24381e-16 
0.01375 -2.16446e-12 -1.13471e-09 0.0025 1 1 2.5 0.005 205 4 1 1.02744e-15 
0.01625 -5.21105e-12 -2.30438e-09 0.0025 1 1 2.5 0.005 206 4 1 1.71774e-15 
0.01875 -1.10008e-11 -4.02736e-09 0.0025 1 1 2.5 0.005 207 4 1 2.17995e-15 
0.02125 -2.02329e-11 -5.56184e-09 0.0025 1 1 2.5 0.005 208 4 1 1.03135e-15 
0.02375 -3.10556e-11 -4.46505e-09 0.0025 1 1 2.5 0.005 209 4 1 -4.77414e-15 
0.02625 -3.41313e-11 6.03455e-09 0.0025 1 1 2.5 0.005 210 3 1 -1.86343e-14 
0.02875 6.45508e-13 3.72129e-08 0.0025 1 1 2.5 0.005 211 5 1 3.31674e-14 
0.03125 -4.92154e-12 -7.33303e-08 0.0025 1 1 2.5 0.005 212 4 1 2.3018e-13 
0.03375 -3.78216e-10 -4.23795e-07 0.0025 1 1 2.5 0.005 213 4 1 7.77595e-13 
0.03625 -1.96385e-09 -1.55179e-06 0.0025 1 1 2.5 0.005 214 4 1 2.2462e-12 
0.03875 -7.0825e-09 -4.6207e-06 0.0025 1 1 2.5 0.005 215 4 1 5.78776e-12 
0.04125 -2.13182e-08 -1.21736e-05 0.0025 1 1 2.5 0.005 216 4 1 1.37283e-11 
0.04375 -5.71754e-08 -2.94431e-05 0.0025 1 1 2.5 0.005 217 4 1 3.0528e-11 
0.04625 -1.41071e-07 -6.66569e-05 0.0025 1 1 2.5 0.005 218 4 1 6.43615e-11 
0.04875 -3.26106e-07 -0.000142951 0.0025 1 1 2.5 0.005 219 4 1 1.29601e-10 
0.05125 -7.14454e-07 -0.0002927 0.0025 1 1 2.5 0.005 220 4 1 2.50545e-10 
0.05375 -1.49509e-06 -0.000575369 0.0025 1 1 2.5 0.00499999 221 4 1 4.66754e-10 
