# Time [s]: 0.298017
# Columns: pos [m], vel [m/s], acc [m/s^2], mass [kg], dens [kg/m^3], pres [Pa], ene [J/kg], sml [m], id, neighbor, alpha, gradh, ...additional?
1.30163 -0.673103 0.000480571 0.0025 0.511048 0.432723 2.1525 0.00978383 0 4 1 -0.000134226 
1.30641 -0.673105 0.000519804 0.0025 0.536904 0.426185 1.95003 0.00931265 1 4 1 0.000179251 
1.31095 -0.673107 0.000552509 0.0025 0.548233 0.430854 1.96849 0.00912021 2 3 1 -1.90587e-05 
1.31553 -0.673109 0.000584492 0.0025 0.545967 0.429188 1.96464 0.00915806 3 5 1 3.48583e-06 
1.32011 -0.673111 0.000618174 0.0025 0.546364 0.429342 1.96457 0.00915141 4 4 1 -1.38757e-07 
1.32468 -0.673113 0.000653205 0.0025 0.546374 0.429311 1.96434 0.00915124 5 4 1 1.43643e-07 
1.32926 -0.673115 0.000687322 0.0025 0.546396 0.429309 1.96428 0.00915088 6 4 1 -3.59763e-09 
1.33384 -0.673118 0.00071981 0.0025 0.546408 0.429305 1.96421 0.00915068 7 4 1 8.14862e-09 
1.33841 -0.673121 0.000753646 0.0025 0.54642 0.429302 1.96416 0.00915046 8 4 1 4.67253e-09 
1.34299 -0.673124 0.000793983 0.0025 0.546431 0.4293 1.96411 0.00915028 9 4 1 5.36811e-09 
1.34756 -0.673127 0.000843966 0.0025 0.546441 0.429298 1.96406 0.00915012 10 4 1 -2.36997e-09 
1.35214 -0.673131 0.000901872 0.0025 0.54645 0.429296 1.96402 0.00914996 11 4 1 4.57938e-09 
1.35671 -0.673135 0.000962762 0.0025 0.546459 0.429293 1.96398 0.00914982 12 4 1 2.69273e-09 
1.36129 -0.673139 0.00102359 0.0025 0.546466 0.429291 1.96394 0.0091497 13 4 1 3.4099e-09 
1.36586 -0.673144 0.00108699 0.0025 0.546472 0.429288 1.96391 0.00914961 14 4 1 1.94847e-09 
1.37044 -0.673149 0.00115987 0.0025 0.546477 0.429285 1.96388 0.00914952 15 4 1 -1.77583e-09 
1.37501 -0.673154 0.00124761 0.0025 0.546481 0.429282 1.96384 0.00914944 16 4 1 4.67612e-09 
1.37959 -0.67316 0.00134886 0.0025 0.546485 0.429279 1.96382 0.00914938 17 4 1 1.22728e-09 
1.38416 -0.673166 0.00145608 0.0025 0.546488 0.429275 1.96379 0.00914934 18 4 1 -1.46066e-09 
1.38873 -0.673173 0.00156189 0.0025 0.54649 0.429271 1.96376 0.0091493 19 4 1 2.43397e-09 
1.39331 -0.67318 0.00166677 0.0025 0.546492 0.429267 1.96374 0.00914927 20 4 1 9.00558e-10 
1.39788 -0.673188 0.00178152 0.0025 0.546492 0.429262 1.96372 0.00914926 21 4 1 8.94032e-10 
1.40246 -0.673196 0.00192091 0.0025 0.546493 0.429257 1.96369 0.00914926 22 3 1 7.00145e-10 
1.40703 -0.673205 0.00209146 0.0025 0.546492 0.429252 1.96367 0.00914926 23 4 1 -5.99094e-10 
1.41161 -0.673215 0.00228314 0.0025 0.546491 0.429247 1.96365 0.00914928 24 4 1 1.00477e-09 
1.41618 -0.673226 0.00247515 0.0025 0.546489 0.42924 1.96363 0.00914932 25 4 1 2.59634e-10 
1.42076 -0.673237 0.00265583 0.0025 0.546486 0.429234 1.96361 0.00914936 26 4 1 -8.26141e-10 
1.42533 -0.67325 0.00284052 0.0025 0.546483 0.429226 1.96359 0.00914941 27 4 1 7.26782e-10 
1.42991 -0.673264 0.00306713 0.0025 0.546479 0.429219 1.96356 0.00914948 28 4 1 2.53221e-10 
1.43448 -0.673279 0.00336657 0.0025 0.546474 0.42921 1.96354 0.00914956 29 4 1 -1.56069e-09 
1.43906 -0.673295 0.00373339 0.0025 0.546469 0.429201 1.96352 0.00914966 30 4 1 -4.57982e-10 
1.44363 -0.673312 0.00412767 0.0025 0.546462 0.429191 1.9635 0.00914977 31 4 1 9.11363e-10 
1.44821 -0.673331 0.00451086 0.0025 0.546454 0.429179 1.96348 0.00914991 32 4 1 -1.93517e-09 
1.45278 -0.673352 0.00488391 0.0025 0.546445 0.429167 1.96345 0.00915006 33 4 1 -1.94331e-09 
1.45736 -0.673376 0.00529334 0.0025 0.546435 0.429154 1.96342 0.00915022 34 4 1 8.5679e-10 
1.46193 -0.673402 0.00580088 0.0025 0.546423 0.429139 1.9634 0.00915041 35 4 1 -1.74767e-09 
1.46651 -0.67343 0.00644247 0.0025 0.546411 0.429123 1.96337 0.00915063 36 4 1 -2.77303e-09 
1.47108 -0.673462 0.00720938 0.0025 0.546396 0.429105 1.96334 0.00915087 37 4 1 -8.10353e-10 
1.47566 -0.673497 0.00806652 0.0025 0.54638 0.429085 1.96331 0.00915115 38 4 1 -2.42112e-09 
1.48023 -0.673535 0.00899267 0.0025 0.546361 0.429062 1.96327 0.00915146 39 4 1 -3.4958e-09 
1.48481 -0.673578 0.0100067 0.0025 0.546339 0.429037 1.96323 0.00915182 40 4 1 -2.35492e-09 
1.48938 -0.673626 0.0111547 0.0025 0.546315 0.429009 1.96319 0.00915222 41 4 1 -3.03127e-09 
1.49396 -0.673679 0.0124723 0.0025 0.546288 0.428977 1.96315 0.00915268 42 4 1 -4.58771e-09 
1.49854 -0.67374 0.0139711 0.0025 0.546257 0.428942 1.9631 0.00915319 43 4 1 -4.50563e-09 
-0.496886 -0.673808 0.0156731 0.0025 0.546223 0.428902 1.96304 0.00915378 44 4 1 -4.14057e-09 
-0.492309 -0.673885 0.0176411 0.0025 0.546183 0.428858 1.96298 0.00915443 45 4 1 -6.20166e-09 
-0.487732 -0.673971 0.0199343 0.0025 0.546139 0.428808 1.96291 0.00915518 46 4 1 -7.32051e-09 
-0.483154 -0.674068 0.0225141 0.0025 0.546089 0.428752 1.96283 0.00915601 47 4 1 -6.53577e-09 
-0.478576 -0.674175 0.0251592 0.0025 0.546033 0.428689 1.96274 0.00915696 48 4 1 -6.69768e-09 
-0.473997 -0.674296 0.0275065 0.0025 0.54597 0.428619 1.96265 0.009158 49 4 1 -6.5629e-09 
-0.469418 -0.674432 0.0294388 0.0025 0.545903 0.428544 1.96255 0.00915914 50 4 1 -5.01493e-09 
-0.464838 -0.674584 0.0314765 0.0025 0.545831 0.428463 1.96244 0.00916034 51 4 1 -3.64556e-09 
-0.460257 -0.674749 0.0341293 0.0025 0.545755 0.428379 1.96232 0.00916162 52 4 1 -4.20677e-09 
-0.455676 -0.674919 0.036677 0.0025 0.545675 0.428291 1.9622 0.00916296 53 4 1 -2.74445e-09 
-0.451094 -0.675088 0.0375704 0.0025 0.545594 0.4282 1.96208 0.00916433 54 4 1 3.42733e-09 
-0.446512 -0.675251 0.0362186 0.0025 0.545514 0.428112 1.96196 0.00916566 55 4 1 1.04617e-08 
-0.441929 -0.675401 0.0331794 0.0025 0.545443 0.428033 1.96186 0.00916687 56 4 1 1.55849e-08 
-0.437345 -0.675526 0.0276549 0.0025 0.545384 0.427968 1.96177 0.00916785 57 4 1 2.61676e-08 
-0.432761 -0.675611 0.0156415 0.0025 0.545347 0.427927 1.96171 0.00916847 58 4 1 1.8005e-08 
-0.428176 -0.675651 0.0193171 0.0025 0.545326 0.427904 1.96168 0.00916882 59 5 1 6.35181e-08 
-0.423592 -0.675675 -0.0238992 0.0025 0.545358 0.427944 1.96172 0.00916828 60 4 1 1.9263e-07 
-0.419008 -0.675304 -0.127774 0.0025 0.545548 0.428152 1.96199 0.0091651 61 4 1 2.24632e-07 
-0.414427 -0.674633 -0.172066 0.0025 0.54592 0.428565 1.96252 0.00915886 62 4 1 3.48087e-07 
-0.409849 -0.673555 -0.332644 0.0025 0.546566 0.42929 1.96344 0.00914802 63 4 1 7.90256e-07 
-0.405279 -0.67132 -0.703437 0.0025 0.547799 0.430656 1.96521 0.00912744 64 4 1 1.19387e-06 
-0.400722 -0.667364 -1.10068 0.0025 0.549837 0.432898 1.96813 0.0090936 65 4 1 1.2679e-06 
-0.396185 -0.661977 -1.38259 0.0025 0.552613 0.435951 1.9721 0.00904793 66 4 1 1.19e-06 
-0.391674 -0.65564 -1.57502 0.0025 0.55594 0.439628 1.97684 0.00899377 67 4 1 1.27393e-06 
-0.387191 -0.648459 -1.80292 0.0025 0.559759 0.443863 1.98225 0.00893242 68 4 1 1.52231e-06 
-0.382741 -0.640302 -2.06255 0.0025 0.564113 0.448707 1.9884 0.00886347 69 4 1 1.77565e-06 
-0.378328 -0.631117 -2.33271 0.0025 0.569032 0.454194 1.99532 0.00878685 70 4 1 1.98765e-06 
-0.373954 -0.620931 -2.59528 0.0025 0.574502 0.460313 2.00297 0.00870319 71 4 1 2.02079e-06 
-0.369624 -0.609998 -2.75773 0.0025 0.580407 0.466942 2.01118 0.00861465 72 4 1 1.91697e-06 
-0.365339 -0.598681 -2.85591 0.0025 0.586578 0.473899 2.0197 0.00852402 73 4 1 1.74961e-06 
-0.3611 -0.587299 -2.87012 0.0025 0.592859 0.481014 2.02833 0.0084337 74 4 1 1.59482e-06 
-0.356905 -0.57602 -2.86999 0.0025 0.599144 0.488164 2.0369 0.00834524 75 4 1 1.47064e-06 
-0.352754 -0.564942 -2.83696 0.0025 0.605373 0.49528 2.04534 0.00825937 76 4 1 1.34488e-06 
-0.348646 -0.554133 -2.7932 0.0025 0.611501 0.502311 2.05359 0.0081766 77 4 1 1.24857e-06 
-0.344578 -0.543647 -2.74427 0.0025 0.61751 0.509236 2.06164 0.00809703 78 4 1 1.19622e-06 
-0.340549 -0.533425 -2.71586 0.0025 0.623412 0.516061 2.0695 0.00802037 79 4 1 1.12536e-06 
-0.336557 -0.523476 -2.66162 0.0025 0.629205 0.522786 2.07717 0.00794654 80 4 1 1.0671e-06 
-0.332602 -0.513772 -2.62854 0.0025 0.634889 0.529411 2.08465 0.00787539 81 4 1 1.0635e-06 
-0.328682 -0.504273 -2.61129 0.0025 0.640501 0.535974 2.092 0.00780639 82 4 1 1.07094e-06 
-0.324795 -0.494897 -2.60882 0.0025 0.646072 0.542513 2.09925 0.00773908 83 4 1 1.08436e-06 
-0.320942 -0.485619 -2.61411 0.0025 0.651632 0.549064 2.10646 0.00767304 84 4 1 1.16212e-06 
-0.317122 -0.476327 -2.67611 0.0025 0.657242 0.555695 2.11369 0.00760755 85 4 1 1.23552e-06 
-0.313335 -0.466933 -2.73144 0.0025 0.662949 0.562461 2.12101 0.00754206 86 4 1 1.28191e-06 
-0.30958 -0.457401 -2.80623 0.0025 0.668768 0.569386 2.12844 0.00747644 87 4 1 1.31475e-06 
-0.305858 -0.447733 -2.86541 0.0025 0.674705 0.576474 2.13598 0.00741065 88 4 1 1.33702e-06 
-0.302169 -0.437975 -2.93579 0.0025 0.680754 0.583723 2.14362 0.0073448 89 4 1 1.36633e-06 
-0.298513 -0.428047 -3.00418 0.0025 0.686917 0.591132 2.15136 0.0072789 90 4 1 1.31711e-06 
-0.29489 -0.418117 -3.01982 0.0025 0.693146 0.598648 2.15914 0.00721348 91 4 1 1.27457e-06 
-0.291299 -0.408224 -3.04898 0.0025 0.699407 0.606232 2.16692 0.00714891 92 4 1 1.27944e-06 
-0.287741 -0.398315 -3.08112 0.0025 0.705705 0.613886 2.1747 0.00708511 93 4 1 1.2284e-06 
-0.284214 -0.388505 -3.0747 0.0025 0.71201 0.621578 2.18245 0.00702237 94 4 1 1.21524e-06 
-0.280718 -0.378749 -3.10745 0.0025 0.71832 0.629303 2.19017 0.00696069 95 4 1 1.19043e-06 
-0.277253 -0.369038 -3.09906 0.0025 0.724631 0.637055 2.19784 0.00690007 96 4 1 1.13869e-06 
-0.273818 -0.359459 -3.09853 0.0025 0.730916 0.644806 2.20545 0.00684073 97 4 1 1.14777e-06 
-0.270413 -0.349919 -3.12074 0.0025 0.737198 0.652576 2.21301 0.00678244 98 4 1 1.09936e-06 
-0.267036 -0.340509 -3.09445 0.0025 0.743458 0.660347 2.22051 0.00672533 99 4 1 1.08948e-06 
-0.263687 -0.331189 -3.1223 0.0025 0.749701 0.668124 2.22794 0.00666932 100 4 1 1.10547e-06 
-0.260366 -0.321883 -3.13339 0.0025 0.755953 0.675936 2.23536 0.00661417 101 4 1 1.04338e-06 
-0.257073 -0.312695 -3.11292 0.0025 0.762181 0.683744 2.24271 0.00656012 102 4 1 1.03003e-06 
-0.253806 -0.303617 -3.12903 0.0025 0.768388 0.691554 2.24999 0.00650713 103 4 1 1.05707e-06 
-0.250566 -0.294546 -3.1566 0.0025 0.774606 0.699399 2.25726 0.00645489 104 4 1 9.73296e-07 
-0.247351 -0.285589 -3.10304 0.0025 0.780788 0.707226 2.26445 0.00640378 105 4 1 9.64061e-07 
-0.244162 -0.276795 -3.13555 0.0025 0.786939 0.715041 2.27156 0.00635373 106 4 1 1.02768e-06 
-0.240997 -0.267942 -3.17231 0.0025 0.79312 0.722914 2.27868 0.00630422 107 4 1 9.58737e-07 
-0.237857 -0.259159 -3.14165 0.0025 0.799289 0.730795 2.28576 0.00625556 108 4 1 8.89597e-07 
-0.234742 -0.250554 -3.11789 0.0025 0.805405 0.738639 2.29274 0.00620806 109 4 1 9.63794e-07 
-0.231649 -0.241974 -3.18876 0.0025 0.811534 0.746522 2.2997 0.00616117 110 4 1 9.5136e-07 
-0.22858 -0.233327 -3.17021 0.0025 0.817682 0.754445 2.30665 0.00611485 111 4 1 8.18547e-07 
-0.225534 -0.224957 -3.1039 0.0025 0.823756 0.762305 2.31349 0.00606976 112 4 1 8.7743e-07 
-0.22251 -0.216638 -3.16928 0.0025 0.829813 0.770167 2.32028 0.00602545 113 4 1 9.49357e-07 
-0.219509 -0.208243 -3.2061 0.0025 0.835922 0.778114 2.3271 0.00598142 114 4 1 8.49915e-07 
-0.216529 -0.19994 -3.16148 0.0025 0.842012 0.786058 2.33386 0.00593816 115 4 1 7.6778e-07 
-0.21357 -0.191819 -3.11959 0.0025 0.848029 0.793937 2.34052 0.00589603 116 4 1 8.62017e-07 
-0.210633 -0.183737 -3.20544 0.0025 0.854059 0.801855 2.34716 0.00585439 117 4 1 9.15128e-07 
-0.207716 -0.175509 -3.23982 0.0025 0.860151 0.809867 2.35385 0.00581293 118 4 1 7.24422e-07 
-0.20482 -0.167485 -3.11165 0.0025 0.866163 0.8178 2.36041 0.00577258 119 4 1 6.67343e-07 
-0.201943 -0.159754 -3.09654 0.0025 0.872067 0.825623 2.36683 0.0057335 120 4 1 8.97203e-07 
-0.199086 -0.151873 -3.26603 0.0025 0.878057 0.833575 2.37332 0.00569439 121 4 1 8.96905e-07 
-0.196249 -0.143807 -3.25642 0.0025 0.884135 0.841653 2.37988 0.00565524 122 4 1 5.97975e-07 
-0.193431 -0.136119 -3.06401 0.0025 0.890069 0.849573 2.38626 0.00561754 123 4 1 6.36532e-07 
-0.190631 -0.128668 -3.12473 0.0025 0.895905 0.857394 2.3925 0.00558095 124 4 1 9.63995e-07 
-0.18785 -0.12088 -3.35944 0.0025 0.901916 0.865454 2.39891 0.00554376 125 4 1 8.0468e-07 
-0.185087 -0.112981 -3.2261 0.0025 0.907973 0.873587 2.40535 0.00550677 126 4 1 4.23181e-07 
-0.182343 -0.105659 -2.9895 0.0025 0.913774 0.881416 2.41147 0.00547181 127 4 1 6.00506e-07 
-0.179616 -0.0985292 -3.11803 0.0025 0.919486 0.889155 2.41749 0.00543782 128 4 1 9.69288e-07 
-0.176905 -0.0909638 -3.3706 0.0025 0.925429 0.897205 2.42373 0.0054029 129 4 1 7.5063e-07 
-0.174213 -0.0833118 -3.20922 0.0025 0.931419 0.905329 2.43 0.00536816 130 4 1 3.89449e-07 
-0.171537 -0.076232 -2.99752 0.0025 0.937155 0.913152 2.43596 0.00533529 131 4 1 5.95265e-07 
-0.168877 -0.0692833 -3.14216 0.0025 0.94283 0.920916 2.44185 0.00530318 132 4 1 9.02753e-07 
-0.166234 -0.0619108 -3.35612 0.0025 0.948713 0.928962 2.44794 0.0052703 133 4 1 6.34074e-07 
-0.163607 -0.0545927 -3.14378 0.0025 0.954582 0.937004 2.45399 0.00523789 134 4 1 3.12528e-07 
-0.160996 -0.0478561 -2.94369 0.0025 0.960176 0.94471 2.45972 0.00520738 135 4 1 6.57475e-07 
-0.158399 -0.0410847 -3.23459 0.0025 0.965789 0.952463 2.46546 0.00517712 136 4 1 8.34438e-07 
-0.155819 -0.033832 -3.30599 0.0025 0.971576 0.960436 2.47138 0.00514628 137 4 1 4.58061e-08 
-0.153253 -0.0273217 -2.56121 0.0025 0.976922 0.96783 2.4768 0.00511812 138 4 1 1.18426e-08 
-0.1507 -0.0219324 -2.59022 0.0025 0.981848 0.974729 2.48174 0.00509244 139 4 1 1.68745e-06 
-0.148161 -0.0148611 -4.11814 0.0025 0.987726 0.982924 2.48772 0.00506213 140 4 1 1.45592e-06 
-0.145638 -0.00601054 -3.83597 0.0025 0.994274 0.991937 2.49437 0.00502879 141 4 1 -1.82374e-06 
-0.143132 -0.00076436 -0.967253 0.0025 0.998763 0.998191 2.4988 0.00500619 142 4 1 -1.34741e-06 
-0.140632 0.00109441 -1.33561 0.0025 1.00165 1.0024 2.50159 0.00499178 143 4 1 3.03755e-06 
-0.13814 0.00754978 -4.82086 0.0025 1.00687 1.00975 2.50689 0.00496586 144 4 1 2.12811e-06 
-0.135666 0.0172552 -3.86799 0.0025 1.01361 1.01901 2.5137 0.00493287 145 4 1 -3.06475e-06 
-0.133207 0.0210938 -0.145069 0.0025 1.01718 1.02402 2.51714 0.00491556 146 4 1 -2.0306e-06 
-0.130751 0.0209765 -0.326991 0.0025 1.01828 1.02573 2.51817 0.00491025 147 4 1 1.16809e-06 
-0.128297 0.0240227 -1.95874 0.0025 1.02025 1.02847 2.52018 0.00490077 148 4 1 -3.42003e-07 
-0.12585 0.0263244 -0.365675 0.0025 1.0219 1.03072 2.52183 0.00489285 149 3 1 -1.65341e-06 
-0.123404 0.0259997 0.389786 0.0025 1.0217 1.03048 2.52161 0.00489379 150 4 1 -8.18656e-07 
-0.120956 0.02461 0.792083 0.0025 1.02046 1.02875 2.52037 0.00489975 151 4 1 -3.82285e-07 
-0.118504 0.0226223 1.03 0.0025 1.01872 1.0263 2.51864 0.00490813 152 4 1 -1.63986e-07 
-0.116048 0.0202954 1.16303 0.0025 1.01672 1.02348 2.51665 0.0049178 153 4 1 -1.82019e-08 
-0.113586 0.0178118 1.21425 0.0025 1.0146 1.02051 2.51456 0.00492803 154 4 1 8.4804e-08 
-0.11112 0.0153101 1.20364 0.0025 1.0125 1.01755 2.51246 0.00493827 155 4 1 1.55255e-07 
-0.108648 0.012895 1.14682 0.0025 1.01049 1.01472 2.51046 0.00494812 156 4 1 1.99323e-07 
-0.106172 0.0106428 1.0573 0.0025 1.00862 1.0121 2.5086 0.00495727 157 4 1 2.22484e-07 
-0.103691 0.0086056 0.946353 0.0025 1.00694 1.00975 2.50693 0.00496552 158 4 1 2.29253e-07 
-0.101206 0.00681454 0.823703 0.0025 1.00548 1.00769 2.50547 0.00497275 159 4 1 2.23459e-07 
-0.0987182 0.00528261 0.697685 0.0025 1.00423 1.00594 2.50423 0.00497892 160 4 1 2.08421e-07 
-0.0962273 0.00400736 0.575244 0.0025 1.0032 1.0045 2.5032 0.00498404 161 4 1 1.87131e-07 
-0.0937342 0.00297395 0.461766 0.0025 1.00237 1.00333 2.50237 0.00498818 162 4 1 1.62288e-07 
-0.0912391 0.00215857 0.360948 0.0025 1.00172 1.00241 2.50171 0.00499143 163 4 1 1.36239e-07 
-0.0887427 0.00153203 0.274796 0.0025 1.00122 1.00171 2.50121 0.00499393 164 4 1 1.10879e-07 
-0.0862452 0.00106305 0.203809 0.0025 1.00084 1.00118 2.50084 0.00499579 165 4 1 8.75813e-08 
-0.0837469 0.000721003 0.147293 0.0025 1.00057 1.0008 2.50057 0.00499715 166 4 1 6.71993e-08 
-0.0812481 0.000477868 0.103746 0.0025 1.00038 1.00053 2.50038 0.00499811 167 4 1 5.0118e-08 
-0.0787488 0.000309404 0.0712252 0.0025 1.00024 1.00034 2.50024 0.00499878 168 4 1 3.63504e-08 
-0.0762493 0.000195617 0.0476617 0.0025 1.00015 1.00022 2.50015 0.00499923 169 4 1 2.5648e-08 
-0.0737496 0.000120701 0.0310826 0.0025 1.0001 1.00013 2.50009 0.00499952 170 4 1 1.76078e-08 
-0.0712498 7.26324e-05 0.0197492 0.0025 1.00006 1.00008 2.50006 0.00499971 171 4 1 1.17617e-08 
-0.0687499 4.25874e-05 0.0122195 0.0025 1.00003 1.00005 2.50003 0.00499983 172 4 1 7.64338e-09 
-0.0662499 2.43037e-05 0.00735754 0.0025 1.00002 1.00003 2.50002 0.0049999 173 4 1 4.8307e-09 
-0.06375 1.34801e-05 0.00430696 0.0025 1.00001 1.00001 2.50001 0.00499995 174 4 1 2.9676e-09 
-0.06125 7.2539e-06 0.00244808 0.0025 1.00001 1.00001 2.50001 0.00499997 175 4 1 1.77063e-09 
-0.05875 3.77861e-06 0.00134892 0.0025 1 1 2.5 0.00499999 176 4 1 1.02494e-09 
-0.05625 1.89984e-06 0.000719005 0.0025 1 1 2.5 0.00499999 177 4 1 5.7476e-10 
-0.05375 9.18506e-07 0.000369705 0.0025 1 1 2.5 0.005 178 4 1 3.11632e-10 
-0.05125 4.24832e-07 0.000182706 0.0025 1 1 2.5 0.005 179 4 1 1.62948e-10 
-0.04875 1.86658e-07 8.63451e-05 0.0025 1 1 2.5 0.005 180 4 1 8.18848e-11 
-0.04625 7.71054e-08 3.87447e-05 0.0025 1 1 2.5 0.005 181 4 1 3.93601e-11 
-0.04375 2.94698e-08 1.63334e-05 0.0025 1 1 2.5 0.005 182 4 1 1.79761e-11 
-0.04125 1.01417e-08 6.35974e-06 0.0025 1 1 2.5 0.005 183 4 1 7.72347e-12 
-0.03875 2.9803e-09 2.21858e-06 0.0025 1 1 2.5 0.005 184 4 1 3.07311e-12 
-0.03625 6.54289e-10 6.49627e-07 0.0025 1 1 2.5 0.005 185 4 1 1.09802e-12 
-0.03375 5.31875e-11 1.37144e-07 0.0025 1 1 2.5 0.005 186 4 1 3.45184e-13 
-0.03125 -1.52546e-11 -2.97374e-08 0.0025 1 1 2.5 0.005 187 5 1 7.09829e-14 
-0.02875 3.20188e-11 -1.38131e-08 0.0025 1 1 2.5 0.005 188 4 1 -1.68775e-14 
-0.02625 3.50271e-11 2.82216e-09 0.0025 1 1 2.5 0.005 189 3 1 -8.87042e-15 
-0.02375 2.43817e-11 6.08998e-09 0.0025 1 1 2.5 0.005 190 4 1 2.43361e-16 
-0.02125 1.38048e-11 4.73688e-09 0.0025 1 1 2.5 0.005 191 4 1 2.23217e-15 
-0.01875 6.77087e-12 2.86178e-09 0.0025 1 1 2.5 0.005 192 4 1 1.99769e-15 
-0.01625 2.91331e-12 1.4598e-09 0.0025 1 1 2.5 0.005 193 4 1 1.25908e-15 
-0.01375 1.08709e-12 6.47844e-10 0.0025 1 1 2.5 0.005 194 4 1 6.77502e-16 
-0.01125 3.35622e-13 2.46132e-10 0.0025 1 1 2.5 0.005 195 4 1 3.00915e-16 
-0.00875 7.42711e-14 7.56586e-11 0.0025 1 1 2.5 0.005 196 4 1 1.22213e-16 
-0.00625 3.3674e-15 1.66551e-11 0.0025 1 1 2.5 0.005 197 4 1 3.97904e-17 
-0.00375 -3.60952e-15 -4.77485e-12 0.0025 1 1 2.5 0.005 198 5 1 8.52651e-18 
-0.00125 2.04464e-15 -1.53477e-12 0.0025 1 1 2.5 0.005 199 3 1 -6.39488e-18 
0.00125 4.08937e-15 2.84217e-12 0.0025 1 1 2.5 0.005 200 4 1 -2.13163e-18 
0.00375 9.59921e-15 4.3201e-12 0.0025 1 1 2.5 0.005 201 5 1 8.52651e-18 
0.00625 3.79024e-16 -1.61435e-11 0.0025 1 1 2.5 0.005 202 4 1 3.87246e-17 
0.00875 -6.97275e-14 -7.64544e-11 0.0025 1 1 2.5 0.005 203 4 1 1.20437e-16 
0.01125 -3.30624e-13 -2.45564e-10 0.0025 1 1 2.5 0.005 204 4 1 3.05178e-16 
0.01375 -1.08162e-12 -6.46878e-10 0.0025 1 1 2.5 0.005 205 4 1 6.65068e-16 
0.01625 -2.90727e-12 -1.45911e-09 0.0025 1 1 2.5 0.005 206 4 1 1.26867e-15 
0.01875 -6.76166e-12 -2.86281e-09 0.0025 1 1 2.5 0.005 207 4 1 1.99343e-15 
0.02125 -1.37987e-11 -4.73619e-09 0.0025 1 1 2.5 0.005 208 4 1 2.23359e-15 
0.02375 -2.4373e-11 -6.08941e-09 0.0025 1 1 2.5 0.005 209 4 1 2.55795e-16 
0.02625 -3.50178e-11 -2.82182e-09 0.0025 1 1 2.5 0.005 210 3 1 -8.90594e-15 
0.02875 -3.20096e-11 1.38128e-08 0.0025 1 1 2.5 0.005 211 4 1 -1.6826e-14 
0.03125 1.52656e-11 2.97374e-08 0.0025 1 1 2.5 0.005 212 5 1 7.09615e-14 
0.03375 -5.31766e-11 -1.37148e-07 0.0025 1 1 2.5 0.005 213 4 1 3.45168e-13 
0.03625 -6.54286e-10 -6.49626e-07 0.0025 1 1 2.5 0.005 214 4 1 1.09802e-12 
0.03875 -2.9803e-09 -2.21858e-06 0.0025 1 1 2.5 0.005 215 4 1 3.07312e-12 
0.04125 -1.01417e-08 -6.35974e-06 0.0025 1 1 2.5 0.005 216 4 1 7.72347e-12 
0.04375 -2.94698e-08 -1.63334e-05 0.0025 1 1 2.5 0.005 217 4 1 1.79761e-11 
0.04625 -7.71054e-08 -3.87447e-05 0.0025 1 1 2.5 0.005 218 4 1 3.93601e-11 
0.04875 -1.86658e-07 -8.63451e-05 0.0025 1 1 2.5 0.005 219 4 1 8.18848e-11 
0.05125 -4.24832e-07 -0.000182706 0.0025 1 1 2.5 0.005 220 4 1 1.62948e-10 
