# Time [s]: 0.29555
# Columns: pos [m], vel [m/s], acc [m/s^2], mass [kg], dens [kg/m^3], pres [Pa], ene [J/kg], sml [m], id, neighbor, alpha, gradh, ...additional?
1.30329 -0.673104 0.000488708 0.0025 0.511047 0.432722 2.1525 0.00978384 0 4 1 -0.000134226 
1.30807 -0.673106 0.000533569 0.0025 0.536903 0.426184 1.95003 0.00931266 1 4 1 0.000179251 
1.31261 -0.673108 0.000569559 0.0025 0.548232 0.430853 1.96849 0.00912022 2 3 1 -1.90587e-05 
1.31719 -0.67311 0.000602812 0.0025 0.545966 0.429188 1.96464 0.00915807 3 5 1 3.48583e-06 
1.32177 -0.673112 0.000637409 0.0025 0.546363 0.429342 1.96457 0.00915142 4 4 1 -1.38762e-07 
1.32635 -0.673115 0.000675018 0.0025 0.546373 0.429311 1.96434 0.00915126 5 4 1 1.43635e-07 
1.33092 -0.673117 0.000713698 0.0025 0.546395 0.429308 1.96428 0.00915089 6 4 1 -3.60951e-09 
1.3355 -0.67312 0.00075088 0.0025 0.546407 0.429304 1.96421 0.00915069 7 4 1 8.13702e-09 
1.34007 -0.673123 0.000787163 0.0025 0.54642 0.429301 1.96416 0.00915048 8 4 1 4.66583e-09 
1.34465 -0.673126 0.00082726 0.0025 0.54643 0.429299 1.96411 0.0091503 9 4 1 5.36659e-09 
1.34922 -0.673129 0.000876624 0.0025 0.54644 0.429297 1.96406 0.00915013 10 4 1 -2.37134e-09 
1.3538 -0.673133 0.000936633 0.0025 0.546449 0.429295 1.96402 0.00914998 11 4 1 4.5721e-09 
1.35837 -0.673137 0.00100317 0.0025 0.546458 0.429292 1.96398 0.00914984 12 4 1 2.67847e-09 
1.36295 -0.673142 0.00107062 0.0025 0.546464 0.429289 1.96394 0.00914973 13 4 1 3.39428e-09 
1.36752 -0.673146 0.00113783 0.0025 0.54647 0.429286 1.96391 0.00914963 14 4 1 1.93886e-09 
1.3721 -0.673152 0.00121038 0.0025 0.546475 0.429283 1.96388 0.00914955 15 4 1 -1.77753e-09 
1.37667 -0.673157 0.00129642 0.0025 0.54648 0.42928 1.96384 0.00914947 16 4 1 4.67586e-09 
1.38125 -0.673163 0.00139951 0.0025 0.546483 0.429277 1.96381 0.00914941 17 4 1 1.21832e-09 
1.38582 -0.67317 0.00151496 0.0025 0.546486 0.429273 1.96379 0.00914937 18 4 1 -1.48346e-09 
1.3904 -0.673177 0.00163332 0.0025 0.546488 0.429269 1.96376 0.00914933 19 4 1 2.40277e-09 
1.39497 -0.673184 0.00174893 0.0025 0.546489 0.429264 1.96374 0.00914931 20 4 1 8.74178e-10 
1.39954 -0.673192 0.00186709 0.0025 0.54649 0.42926 1.96371 0.0091493 21 3 1 8.82941e-10 
1.40412 -0.673201 0.00200311 0.0025 0.54649 0.429255 1.96369 0.0091493 22 4 1 7.0089e-10 
1.40869 -0.673211 0.00217185 0.0025 0.546489 0.429249 1.96367 0.00914931 23 4 1 -6.05593e-10 
1.41327 -0.673221 0.00237406 0.0025 0.546488 0.429243 1.96364 0.00914934 24 4 1 9.69602e-10 
1.41784 -0.673232 0.00259192 0.0025 0.546486 0.429237 1.96362 0.00914937 25 4 1 1.93355e-10 
1.42242 -0.673244 0.00280264 0.0025 0.546483 0.42923 1.9636 0.00914942 26 4 1 -8.975e-10 
1.42699 -0.673257 0.00300329 0.0025 0.546479 0.429222 1.96358 0.00914948 27 4 1 6.86784e-10 
1.43157 -0.673271 0.00322383 0.0025 0.546475 0.429214 1.96356 0.00914956 28 4 1 2.55528e-10 
1.43614 -0.673287 0.00350934 0.0025 0.546469 0.429205 1.96354 0.00914964 29 4 1 -1.54995e-09 
1.44072 -0.673304 0.00388141 0.0025 0.546463 0.429195 1.96351 0.00914974 30 4 1 -4.9432e-10 
1.44529 -0.673323 0.00431557 0.0025 0.546456 0.429185 1.96349 0.00914986 31 4 1 8.00056e-10 
1.44987 -0.673343 0.00476161 0.0025 0.546448 0.429173 1.96347 0.00915001 32 4 1 -2.094e-09 
1.45444 -0.673365 0.0051912 0.0025 0.546438 0.42916 1.96344 0.00915017 33 4 1 -2.08899e-09 
1.45902 -0.673389 0.00562909 0.0025 0.546427 0.429145 1.96341 0.00915035 34 4 1 7.66819e-10 
1.46359 -0.673416 0.00614068 0.0025 0.546415 0.42913 1.96339 0.00915055 35 4 1 -1.79322e-09 
1.46817 -0.673447 0.00678828 0.0025 0.546401 0.429113 1.96336 0.00915078 36 4 1 -2.83157e-09 
1.47274 -0.67348 0.00759172 0.0025 0.546386 0.429094 1.96333 0.00915104 37 4 1 -9.4118e-10 
1.47732 -0.673517 0.00852433 0.0025 0.546368 0.429072 1.96329 0.00915133 38 4 1 -2.64017e-09 
1.48189 -0.673558 0.00954808 0.0025 0.546348 0.429048 1.96326 0.00915167 39 4 1 -3.76883e-09 
1.48647 -0.673603 0.0106581 0.0025 0.546326 0.429022 1.96321 0.00915205 40 4 1 -2.63678e-09 
1.49105 -0.673654 0.0118952 0.0025 0.5463 0.428992 1.96317 0.00915248 41 4 1 -3.31359e-09 
1.49562 -0.673711 0.0133132 0.0025 0.546271 0.428958 1.96312 0.00915297 42 4 1 -4.89918e-09 
-0.499801 -0.673775 0.0149357 0.0025 0.546238 0.42892 1.96307 0.00915352 43 4 1 -4.85463e-09 
-0.495224 -0.673848 0.0167643 0.0025 0.546201 0.428878 1.96301 0.00915414 44 4 1 -4.47782e-09 
-0.490647 -0.67393 0.0188322 0.0025 0.546159 0.428831 1.96294 0.00915485 45 4 1 -6.47507e-09 
-0.486069 -0.674022 0.0212097 0.0025 0.546111 0.428777 1.96287 0.00915564 46 4 1 -7.55981e-09 
-0.481491 -0.674125 0.0239204 0.0025 0.546058 0.428717 1.96278 0.00915653 47 4 1 -6.87326e-09 
-0.476913 -0.67424 0.0268381 0.0025 0.545998 0.428651 1.96269 0.00915754 48 4 1 -7.26991e-09 
-0.472333 -0.674366 0.029592 0.0025 0.545932 0.428577 1.96259 0.00915865 49 4 1 -7.14539e-09 
-0.467754 -0.674507 0.031695 0.0025 0.54586 0.428496 1.96248 0.00915986 50 4 1 -4.71967e-09 
-0.463174 -0.674664 0.0331799 0.0025 0.545784 0.428412 1.96237 0.00916114 51 4 1 -1.72423e-09 
-0.458593 -0.674834 0.0348055 0.0025 0.545705 0.428324 1.96225 0.00916246 52 4 1 -1.34975e-09 
-0.454011 -0.675009 0.0366872 0.0025 0.545625 0.428235 1.96213 0.00916381 53 4 1 -3.03566e-10 
-0.449429 -0.67518 0.0372607 0.0025 0.545545 0.428147 1.96201 0.00916515 54 4 1 5.67176e-09 
-0.444846 -0.675339 0.0348913 0.0025 0.545469 0.428063 1.9619 0.00916642 55 4 1 1.39591e-08 
-0.440263 -0.675479 0.0300556 0.0025 0.545404 0.427991 1.9618 0.00916751 56 4 1 2.14342e-08 
-0.435679 -0.675589 0.0231125 0.0025 0.545357 0.427938 1.96173 0.00916831 57 4 1 2.35845e-08 
-0.431094 -0.67564 0.0100457 0.0025 0.54533 0.427908 1.96169 0.00916876 58 4 1 2.86176e-08 
-0.42651 -0.675704 0.0147777 0.0025 0.545327 0.427908 1.96168 0.0091688 59 5 1 1.37508e-07 
-0.421925 -0.675531 -0.0893382 0.0025 0.545438 0.428032 1.96183 0.00916695 60 4 1 2.18405e-07 
-0.417343 -0.67496 -0.148206 0.0025 0.545726 0.428349 1.96224 0.0091621 61 4 1 2.58194e-07 
-0.412763 -0.674142 -0.236676 0.0025 0.546223 0.428906 1.96295 0.00915377 62 4 1 5.82319e-07 
-0.408189 -0.672508 -0.527253 0.0025 0.547164 0.429955 1.9643 0.00913803 63 4 1 1.06797e-06 
-0.403625 -0.669278 -0.950226 0.0025 0.548859 0.431823 1.96673 0.00910981 64 4 1 1.27931e-06 
-0.399079 -0.664419 -1.27976 0.0025 0.551354 0.434565 1.9703 0.00906859 65 4 1 1.21545e-06 
-0.394557 -0.65842 -1.49842 0.0025 0.55447 0.438002 1.97475 0.00901762 66 4 1 1.22513e-06 
-0.390061 -0.651597 -1.70729 0.0025 0.558092 0.442014 1.97989 0.0089591 67 4 1 1.43143e-06 
-0.385597 -0.643816 -1.96427 0.0025 0.562237 0.44662 1.98576 0.00889304 68 4 1 1.70686e-06 
-0.381168 -0.634998 -2.23969 0.0025 0.566955 0.451876 1.99241 0.00881903 69 4 1 1.94626e-06 
-0.376778 -0.625138 -2.51479 0.0025 0.572249 0.457791 1.99983 0.00873745 70 4 1 2.06191e-06 
-0.372431 -0.614358 -2.72771 0.0025 0.578043 0.464286 2.0079 0.00864987 71 4 1 1.99804e-06 
-0.368128 -0.603083 -2.84631 0.0025 0.584176 0.471189 2.0164 0.00855906 72 4 1 1.83845e-06 
-0.363871 -0.591588 -2.89107 0.0025 0.590475 0.47831 2.02506 0.00846775 73 4 1 1.67853e-06 
-0.35966 -0.580188 -2.89537 0.0025 0.596816 0.485511 2.03373 0.0083778 74 4 1 1.54093e-06 
-0.355493 -0.568933 -2.87459 0.0025 0.60312 0.492703 2.04229 0.00829023 75 4 1 1.41079e-06 
-0.35137 -0.557949 -2.83226 0.0025 0.609337 0.499825 2.05069 0.00820565 76 4 1 1.29237e-06 
-0.347287 -0.547262 -2.77879 0.0025 0.615433 0.506839 2.05887 0.00812436 77 4 1 1.22617e-06 
-0.343245 -0.536878 -2.74438 0.0025 0.621412 0.513746 2.06684 0.00804619 78 4 1 1.16737e-06 
-0.339241 -0.526743 -2.69971 0.0025 0.627283 0.520553 2.07463 0.00797088 79 4 1 1.10406e-06 
-0.335274 -0.516915 -2.65983 0.0025 0.633046 0.52726 2.08223 0.00789832 80 4 1 1.0743e-06 
-0.331343 -0.507286 -2.63214 0.0025 0.63872 0.533889 2.08967 0.00782816 81 4 1 1.07971e-06 
-0.327446 -0.497812 -2.62754 0.0025 0.64434 0.540478 2.097 0.00775988 82 4 1 1.09389e-06 
-0.323582 -0.488441 -2.62849 0.0025 0.649939 0.547067 2.10427 0.00769302 83 4 1 1.14751e-06 
-0.319752 -0.479106 -2.67079 0.0025 0.655567 0.553713 2.11154 0.00762698 84 4 1 1.23358e-06 
-0.315955 -0.469652 -2.73558 0.0025 0.661282 0.560483 2.11888 0.00756107 85 4 1 1.29732e-06 
-0.312191 -0.460102 -2.80863 0.0025 0.667114 0.567416 2.12633 0.00749497 86 4 1 1.33118e-06 
-0.30846 -0.450394 -2.87386 0.0025 0.673068 0.574517 2.1339 0.00742867 87 4 1 1.34773e-06 
-0.304762 -0.440581 -2.93665 0.0025 0.679134 0.58178 2.14158 0.00736231 88 4 1 1.39128e-06 
-0.301098 -0.430624 -3.0208 0.0025 0.685322 0.589212 2.14936 0.00729584 89 4 1 1.3523e-06 
-0.297466 -0.420594 -3.03699 0.0025 0.69159 0.596768 2.1572 0.00722971 90 4 1 1.29679e-06 
-0.293868 -0.410615 -3.0662 0.0025 0.697892 0.604395 2.16504 0.00716443 91 4 1 1.3068e-06 
-0.290302 -0.400633 -3.10293 0.0025 0.704235 0.612098 2.17289 0.0070999 92 4 1 1.25529e-06 
-0.286768 -0.390696 -3.09661 0.0025 0.71059 0.619843 2.18071 0.00703641 93 4 1 1.23511e-06 
-0.283265 -0.380861 -3.12613 0.0025 0.716948 0.627621 2.18849 0.00697401 94 4 1 1.22612e-06 
-0.279794 -0.371047 -3.13209 0.0025 0.723314 0.635436 2.19624 0.00691262 95 4 1 1.16695e-06 
-0.276353 -0.361371 -3.12271 0.0025 0.729661 0.643255 2.20393 0.0068525 96 4 1 1.16295e-06 
-0.272941 -0.351756 -3.14451 0.0025 0.735996 0.651087 2.21157 0.00679352 97 4 1 1.12382e-06 
-0.269559 -0.34222 -3.12124 0.0025 0.742311 0.658921 2.21914 0.00673572 98 4 1 1.10711e-06 
-0.266205 -0.332824 -3.14341 0.0025 0.748606 0.666759 2.22664 0.00667908 99 4 1 1.12809e-06 
-0.26288 -0.32343 -3.1618 0.0025 0.754912 0.674633 2.23413 0.00662329 100 4 1 1.06895e-06 
-0.259582 -0.314146 -3.13986 0.0025 0.761197 0.682509 2.24155 0.0065686 101 4 1 1.04456e-06 
-0.256311 -0.304978 -3.15114 0.0025 0.767456 0.69038 2.2489 0.00651503 102 4 1 1.07178e-06 
-0.253067 -0.295829 -3.17933 0.0025 0.773723 0.698284 2.25623 0.00646226 103 4 1 1.00545e-06 
-0.249849 -0.286773 -3.13971 0.0025 0.779964 0.706181 2.26349 0.00641055 104 4 1 9.71678e-07 
-0.246656 -0.277902 -3.1474 0.0025 0.786166 0.714058 2.27067 0.00635998 105 4 1 1.04146e-06 
-0.243489 -0.268964 -3.203 0.0025 0.792394 0.721988 2.27785 0.00630999 106 4 1 9.90784e-07 
-0.240346 -0.260109 -3.17107 0.0025 0.798621 0.729941 2.28499 0.00626079 107 4 1 9.04528e-07 
-0.237228 -0.251421 -3.14477 0.0025 0.804793 0.737853 2.29204 0.00621278 108 4 1 9.70202e-07 
-0.234133 -0.242763 -3.207 0.0025 0.810971 0.745796 2.29906 0.00616545 109 4 1 9.78417e-07 
-0.231062 -0.234051 -3.2081 0.0025 0.817172 0.753788 2.30608 0.00611866 110 4 1 8.30871e-07 
-0.228014 -0.22559 -3.11983 0.0025 0.823299 0.761713 2.31298 0.00607313 111 4 1 8.84057e-07 
-0.224989 -0.217201 -3.19703 0.0025 0.829402 0.769634 2.31982 0.00602844 112 4 1 9.71811e-07 
-0.221986 -0.208724 -3.2316 0.0025 0.835563 0.777645 2.3267 0.00598399 113 4 1 8.58728e-07 
-0.219005 -0.200353 -3.18274 0.0025 0.841699 0.78565 2.33352 0.00594037 114 4 1 7.90823e-07 
-0.216045 -0.192168 -3.15418 0.0025 0.84777 0.793598 2.34023 0.00589783 115 4 1 8.8002e-07 
-0.213107 -0.184008 -3.23134 0.0025 0.853857 0.801589 2.34694 0.00585578 116 4 1 9.23052e-07 
-0.210189 -0.175712 -3.2662 0.0025 0.859999 0.809666 2.35368 0.00581396 117 4 1 7.31276e-07 
-0.207293 -0.167642 -3.13005 0.0025 0.866056 0.817659 2.3603 0.0057733 118 4 1 6.8676e-07 
-0.204416 -0.159843 -3.13079 0.0025 0.87201 0.825548 2.36677 0.00573388 119 4 1 9.22969e-07 
-0.201559 -0.151866 -3.30065 0.0025 0.878059 0.833577 2.37332 0.00569438 120 4 1 8.88887e-07 
-0.198722 -0.143744 -3.26538 0.0025 0.88418 0.841713 2.37993 0.00565496 121 4 1 5.89433e-07 
-0.195904 -0.136019 -3.07484 0.0025 0.890142 0.849671 2.38633 0.00561708 122 4 1 6.90018e-07 
-0.193104 -0.128491 -3.18575 0.0025 0.896039 0.857575 2.39264 0.00558011 123 4 1 9.92874e-07 
-0.190324 -0.120598 -3.39007 0.0025 0.902124 0.865732 2.39913 0.00554248 124 4 1 7.62749e-07 
-0.187562 -0.112667 -3.21855 0.0025 0.90821 0.873906 2.4056 0.00550533 125 4 1 4.21522e-07 
-0.184818 -0.10536 -3.00657 0.0025 0.914031 0.881766 2.41174 0.00547027 126 4 1 6.73972e-07 
-0.182092 -0.0981261 -3.19144 0.0025 0.919816 0.889603 2.41783 0.00543587 127 4 1 9.88065e-07 
-0.179382 -0.0904315 -3.39615 0.0025 0.925836 0.897754 2.42416 0.00540053 128 4 1 6.90294e-07 
-0.176691 -0.0827729 -3.1898 0.0025 0.931843 0.905906 2.43044 0.00536571 129 4 1 3.93653e-07 
-0.174017 -0.0757177 -3.01848 0.0025 0.937594 0.913752 2.43642 0.0053328 130 4 1 6.80915e-07 
-0.171358 -0.0686375 -3.22496 0.0025 0.943346 0.921622 2.44239 0.00530028 131 4 1 9.10416e-07 
-0.168716 -0.0611571 -3.37207 0.0025 0.949304 0.92977 2.44855 0.00526702 132 4 1 5.47815e-07 
-0.166091 -0.0538699 -3.09913 0.0025 0.95517 0.937812 2.45459 0.00523467 133 4 1 3.58037e-07 
-0.163482 -0.0471309 -3.01258 0.0025 0.960789 0.94556 2.46035 0.00520405 134 4 1 7.73599e-07 
-0.160887 -0.0401689 -3.33717 0.0025 0.966514 0.953461 2.46621 0.00517323 135 4 1 6.96123e-07 
-0.158308 -0.0329078 -3.18268 0.0025 0.972295 0.961424 2.47211 0.00514247 136 4 1 -1.03087e-07 
-0.155744 -0.0267109 -2.45174 0.0025 0.977518 0.968668 2.47739 0.005115 137 4 1 3.82411e-07 
-0.153193 -0.0210957 -2.96081 0.0025 0.982627 0.975828 2.48253 0.0050884 138 4 1 1.98651e-06 
-0.150656 -0.0132328 -4.38093 0.0025 0.988895 0.98453 2.48892 0.00505615 139 4 1 6.78401e-07 
-0.148137 -0.00477107 -3.17472 0.0025 0.995182 0.993179 2.49528 0.00502421 140 4 1 -2.24951e-06 
-0.145632 -0.000832215 -0.599792 0.0025 0.999033 0.998608 2.49904 0.00500484 141 4 1 -2.4354e-07 
-0.143132 0.00166037 -2.29465 0.0025 1.0023 1.00335 2.50224 0.00498855 142 4 1 3.64311e-06 
-0.140643 0.00982562 -5.23436 0.0025 1.00838 1.01182 2.50844 0.00495844 143 4 1 6.58273e-07 
-0.138174 0.0187166 -2.80018 0.0025 1.0147 1.0205 2.51477 0.00492757 144 4 1 -3.57506e-06 
-0.135716 0.0208316 0.428273 0.0025 1.01728 1.02421 2.51721 0.00491508 145 4 1 -9.10093e-07 
-0.133259 0.021121 -1.19255 0.0025 1.01848 1.02603 2.51837 0.00490928 146 4 1 1.31633e-06 
-0.130806 0.0249369 -1.85568 0.0025 1.02081 1.02923 2.52074 0.00489809 147 4 1 -9.67526e-07 
-0.12836 0.0266188 -0.113345 0.0025 1.02217 1.03111 2.52209 0.00489153 148 3 1 -1.62666e-06 
-0.125915 0.0259713 0.523016 0.0025 1.02165 1.03042 2.52156 0.00489402 149 4 1 -6.89397e-07 
-0.123466 0.0243795 0.874379 0.0025 1.02024 1.02845 2.52015 0.00490079 150 4 1 -3.26416e-07 
-0.121014 0.0222581 1.08774 0.0025 1.0184 1.02585 2.51832 0.00490968 151 4 1 -1.20096e-07 
-0.118557 0.0198491 1.19569 0.0025 1.01633 1.02294 2.51627 0.00491966 152 4 1 1.43327e-08 
-0.116094 0.0173245 1.22863 0.0025 1.01419 1.01993 2.51415 0.00493004 153 4 1 1.08325e-07 
-0.113627 0.0148132 1.20397 0.0025 1.01208 1.01697 2.51205 0.00494031 154 4 1 1.71024e-07 
-0.111154 0.0124116 1.13715 0.0025 1.01008 1.01415 2.51006 0.00495009 155 4 1 2.09157e-07 
-0.108677 0.0101892 1.04064 0.0025 1.00824 1.01157 2.50823 0.00495911 156 4 1 2.2783e-07 
-0.106195 0.00819291 0.925136 0.0025 1.0066 1.00927 2.50659 0.00496719 157 4 1 2.31261e-07 
-0.103709 0.00644955 0.799882 0.0025 1.00518 1.00727 2.50517 0.00497423 158 4 1 2.22966e-07 
-0.101221 0.0049685 0.672903 0.0025 1.00398 1.00558 2.50397 0.00498018 159 4 1 2.06068e-07 
-0.0987292 0.00374425 0.550882 0.0025 1.00299 1.0042 2.50298 0.0049851 160 4 1 1.83455e-07 
-0.0962356 0.00275941 0.438933 0.0025 1.0022 1.00309 2.50219 0.00498904 161 4 1 1.5778e-07 
-0.0937402 0.00198828 0.340444 0.0025 1.00158 1.00222 2.50158 0.00499211 162 4 1 1.31345e-07 
-0.0912435 0.00140044 0.257101 0.0025 1.00111 1.00156 2.50111 0.00499445 163 4 1 1.0598e-07 
-0.0887457 0.000964051 0.189096 0.0025 1.00076 1.00107 2.50076 0.00499619 164 4 1 8.29774e-08 
-0.0862473 0.000648471 0.135484 0.0025 1.00051 1.00072 2.50051 0.00499744 165 4 1 6.30944e-08 
-0.0837483 0.000426111 0.0945816 0.0025 1.00034 1.00047 2.50033 0.00499832 166 4 1 4.66231e-08 
-0.081249 0.000273428 0.0643396 0.0025 1.00022 1.0003 2.50021 0.00499892 167 4 1 3.34965e-08 
-0.0787494 0.000171258 0.0426472 0.0025 1.00013 1.00019 2.50013 0.00499933 168 4 1 2.34057e-08 
-0.0762496 0.000104637 0.0275401 0.0025 1.00008 1.00012 2.50008 0.00499959 169 4 1 1.59087e-08 
-0.0737498 6.23167e-05 0.0173201 0.0025 1.00005 1.00007 2.50005 0.00499975 170 4 1 1.0518e-08 
-0.0712499 3.61397e-05 0.0106024 0.0025 1.00003 1.00004 2.50003 0.00499986 171 4 1 6.76276e-09 
-0.0687499 2.03838e-05 0.0063122 0.0025 1.00002 1.00002 2.50002 0.00499992 172 4 1 4.22706e-09 
-0.06625 1.11642e-05 0.00365105 0.0025 1.00001 1.00001 2.50001 0.00499996 173 4 1 2.56684e-09 
-0.06375 5.92584e-06 0.00204881 0.0025 1 1.00001 2.5 0.00499998 174 4 1 1.51289e-09 
-0.06125 3.0406e-06 0.00111336 0.0025 1 1 2.5 0.00499999 175 4 1 8.64418e-10 
-0.05875 1.50325e-06 0.000584485 0.0025 1 1 2.5 0.00499999 176 4 1 4.77994e-10 
-0.05625 7.12998e-07 0.00029549 0.0025 1 1 2.5 0.005 177 4 1 2.55237e-10 
-0.05375 3.2252e-07 0.00014325 0.0025 1 1 2.5 0.005 178 4 1 1.31222e-10 
-0.05125 1.37972e-07 6.6202e-05 0.0025 1 1 2.5 0.005 179 4 1 6.46966e-11 
-0.04875 5.51223e-08 2.8918e-05 0.0025 1 1 2.5 0.005 180 4 1 3.04201e-11 
-0.04625 2.01543e-08 1.17839e-05 0.0025 1 1 2.5 0.005 181 4 1 1.35326e-11 
-0.04375 6.50251e-09 4.38303e-06 0.0025 1 1 2.5 0.005 182 4 1 5.62546e-12 
-0.04125 1.71264e-09 1.42599e-06 0.0025 1 1 2.5 0.005 183 4 1 2.14064e-12 
-0.03875 2.88121e-10 3.65393e-07 0.0025 1 1 2.5 0.005 184 4 1 7.23436e-13 
-0.03625 -1.65409e-11 4.09797e-08 0.0025 1 1 2.5 0.005 185 4 1 2.0025e-13 
-0.03375 1.25939e-11 -3.76776e-08 0.0025 1 1 2.5 0.005 186 5 1 1.60576e-14 
-0.03125 4.10461e-11 -2.66311e-09 0.0025 1 1 2.5 0.005 187 3 1 -2.01794e-14 
-0.02875 3.39061e-11 6.10953e-09 0.0025 1 1 2.5 0.005 188 4 1 -3.39959e-15 
-0.02625 2.10898e-11 6.26665e-09 0.0025 1 1 2.5 0.005 189 4 1 1.81615e-15 
-0.02375 1.11088e-11 4.25086e-09 0.0025 1 1 2.5 0.005 190 4 1 2.51212e-15 
-0.02125 5.11368e-12 2.3515e-09 0.0025 1 1 2.5 0.005 191 4 1 1.83782e-15 
-0.01875 2.05726e-12 1.12084e-09 0.0025 1 1 2.5 0.005 192 4 1 1.06297e-15 
-0.01625 7.05405e-13 4.62023e-10 0.0025 1 1 2.5 0.005 193 4 1 5.12657e-16 
-0.01375 1.89966e-13 1.60753e-10 0.0025 1 1 2.5 0.005 194 4 1 2.29861e-16 
-0.01125 2.98408e-14 4.21778e-11 0.0025 1 1 2.5 0.005 195 4 1 7.35412e-17 
-0.00875 -4.83068e-15 4.66116e-12 0.0025 1 1 2.5 0.005 196 4 1 2.73559e-17 
-0.00625 8.76998e-16 -5.05906e-12 0.0025 1 1 2.5 0.005 197 5 1 3.55271e-19 
-0.00375 4.01487e-15 -7.38964e-13 0.0025 1 1 2.5 0.005 198 3 1 -3.55271e-19 
-0.00125 2.44788e-15 6.82121e-13 0.0025 1 1 2.5 0.005 199 4 1 -7.10543e-19 
0.00125 7.76711e-16 3.97904e-13 0.0025 1 1 2.5 0.005 200 4 1 1.97215e-32 
0.00375 2.39739e-16 1.13687e-12 0.0025 1 1 2.5 0.005 201 4 1 -2.84217e-18 
0.00625 5.58591e-15 4.718e-12 0.0025 1 1 2.5 0.005 202 5 1 2.84217e-18 
0.00875 8.28777e-15 -3.86535e-12 0.0025 1 1 2.5 0.005 203 4 1 2.45137e-17 
0.01125 -2.54561e-14 -4.31442e-11 0.0025 1 1 2.5 0.005 204 4 1 7.8515e-17 
0.01375 -1.84863e-13 -1.60071e-10 0.0025 1 1 2.5 0.005 205 4 1 2.18492e-16 
0.01625 -7.00021e-13 -4.6208e-10 0.0025 1 1 2.5 0.005 206 4 1 5.21538e-16 
0.01875 -2.05019e-12 -1.12016e-09 0.0025 1 1 2.5 0.005 207 4 1 1.05977e-15 
0.02125 -5.10569e-12 -2.35207e-09 0.0025 1 1 2.5 0.005 208 4 1 1.83498e-15 
0.02375 -1.11012e-11 -4.24922e-09 0.0025 1 1 2.5 0.005 209 4 1 2.52776e-15 
0.02625 -2.10819e-11 -6.26881e-09 0.0025 1 1 2.5 0.005 210 4 1 1.7824e-15 
0.02875 -3.38971e-11 -6.10697e-09 0.0025 1 1 2.5 0.005 211 4 1 -3.35056e-15 
0.03125 -4.10336e-11 2.66164e-09 0.0025 1 1 2.5 0.005 212 3 1 -2.02046e-14 
0.03375 -1.2582e-11 3.76814e-08 0.0025 1 1 2.5 0.005 213 5 1 1.60458e-14 
0.03625 1.65479e-11 -4.09872e-08 0.0025 1 1 2.5 0.005 214 4 1 2.00256e-13 
0.03875 -2.88117e-10 -3.6539e-07 0.0025 1 1 2.5 0.005 215 4 1 7.23443e-13 
0.04125 -1.71264e-09 -1.42599e-06 0.0025 1 1 2.5 0.005 216 4 1 2.14064e-12 
0.04375 -6.50251e-09 -4.38303e-06 0.0025 1 1 2.5 0.005 217 4 1 5.62546e-12 
0.04625 -2.01543e-08 -1.17839e-05 0.0025 1 1 2.5 0.005 218 4 1 1.35327e-11 
0.04875 -5.51223e-08 -2.8918e-05 0.0025 1 1 2.5 0.005 219 4 1 3.04201e-11 
0.05125 -1.37972e-07 -6.6202e-05 0.0025 1 1 2.5 0.005 220 4 1 6.46966e-11 
0.05375 -3.2252e-07 -0.00014325 0.0025 1 1 2.5 0.005 221 4 1 1.31222e-10 
