# Time [s]: 0.30542
# Columns: pos [m], vel [m/s], acc [m/s^2], mass [kg], dens [kg/m^3], pres [Pa], ene [J/kg], sml [m], id, neighbor, alpha, gradh, ...additional?
1.29665 -0.6731 0.000445802 0.0025 0.511049 0.432724 2.1525 0.0097838 0 4 1 -0.000134226 
1.30143 -0.673101 0.000475615 0.0025 0.536905 0.426187 1.95004 0.00931263 1 4 1 0.000179251 
1.30597 -0.673103 0.000503641 0.0025 0.548234 0.430856 1.9685 0.00912019 2 3 1 -1.90586e-05 
1.31055 -0.673105 0.000531755 0.0025 0.545969 0.42919 1.96464 0.00915804 3 5 1 3.48582e-06 
1.31513 -0.673106 0.000558497 0.0025 0.546366 0.429344 1.96457 0.00915138 4 4 1 -1.38737e-07 
1.3197 -0.673108 0.000583242 0.0025 0.546376 0.429314 1.96434 0.00915121 5 4 1 1.4367e-07 
1.32428 -0.673111 0.000607707 0.0025 0.546398 0.429311 1.96428 0.00915084 6 4 1 -3.57281e-09 
1.32885 -0.673113 0.000635503 0.0025 0.54641 0.429307 1.96422 0.00915064 7 4 1 8.16312e-09 
1.33343 -0.673116 0.00066952 0.0025 0.546423 0.429305 1.96416 0.00915042 8 4 1 4.67788e-09 
1.338 -0.673118 0.000709605 0.0025 0.546434 0.429303 1.96411 0.00915024 9 4 1 5.37568e-09 
1.34258 -0.673121 0.000752962 0.0025 0.546444 0.429301 1.96407 0.00915007 10 4 1 -2.34879e-09 
1.34715 -0.673125 0.000797252 0.0025 0.546454 0.429299 1.96402 0.00914991 11 4 1 4.6141e-09 
1.35173 -0.673128 0.000843591 0.0025 0.546462 0.429297 1.96398 0.00914976 12 4 1 2.72794e-09 
1.3563 -0.673132 0.000896409 0.0025 0.54647 0.429295 1.96395 0.00914964 13 4 1 3.43121e-09 
1.36088 -0.673136 0.000959901 0.0025 0.546476 0.429292 1.96391 0.00914954 14 4 1 1.95463e-09 
1.36545 -0.673141 0.00103406 0.0025 0.546481 0.42929 1.96388 0.00914945 15 4 1 -1.76912e-09 
1.37003 -0.673145 0.00111408 0.0025 0.546486 0.429287 1.96385 0.00914937 16 4 1 4.70416e-09 
1.3746 -0.67315 0.00119418 0.0025 0.54649 0.429284 1.96382 0.0091493 17 4 1 1.28391e-09 
1.37918 -0.673156 0.0012733 0.0025 0.546493 0.429281 1.9638 0.00914925 18 4 1 -1.39109e-09 
1.38375 -0.673162 0.00135774 0.0025 0.546496 0.429277 1.96377 0.0091492 19 4 1 2.48779e-09 
1.38833 -0.673168 0.00145764 0.0025 0.546498 0.429274 1.96375 0.00914917 20 4 1 9.21493e-10 
1.3929 -0.673175 0.00157869 0.0025 0.546499 0.42927 1.96373 0.00914914 21 4 1 8.97536e-10 
1.39747 -0.673183 0.00171553 0.0025 0.5465 0.429266 1.9637 0.00914913 22 4 1 7.30441e-10 
1.40205 -0.673191 0.00185435 0.0025 0.5465 0.429261 1.96368 0.00914913 23 3 1 -5.03272e-10 
1.40662 -0.673199 0.00198537 0.0025 0.546499 0.429256 1.96366 0.00914914 24 4 1 1.15781e-09 
1.4112 -0.673209 0.00211592 0.0025 0.546498 0.429251 1.96364 0.00914916 25 4 1 4.06829e-10 
1.41577 -0.673219 0.00227026 0.0025 0.546496 0.429245 1.96362 0.00914919 26 4 1 -7.54716e-10 
1.42035 -0.67323 0.00247193 0.0025 0.546494 0.429239 1.9636 0.00914923 27 4 1 7.17005e-10 
1.42492 -0.673242 0.00272242 0.0025 0.546491 0.429232 1.96358 0.00914928 28 4 1 2.46178e-10 
1.4295 -0.673255 0.00299704 0.0025 0.546487 0.429224 1.96356 0.00914935 29 4 1 -1.45153e-09 
1.43407 -0.673269 0.00326521 0.0025 0.546482 0.429216 1.96354 0.00914943 30 4 1 -1.89398e-10 
1.43865 -0.673284 0.00351871 0.0025 0.546477 0.429207 1.96352 0.00914952 31 4 1 1.26648e-09 
1.44322 -0.673301 0.003783 0.0025 0.54647 0.429198 1.9635 0.00914963 32 4 1 -1.62621e-09 
1.4478 -0.673319 0.00410147 0.0025 0.546463 0.429187 1.96348 0.00914975 33 4 1 -1.76221e-09 
1.45237 -0.67334 0.0045061 0.0025 0.546455 0.429176 1.96345 0.00914988 34 4 1 9.48599e-10 
1.45695 -0.673362 0.00499818 0.0025 0.546446 0.429163 1.96343 0.00915004 35 4 1 -1.61427e-09 
1.46152 -0.673386 0.00555437 0.0025 0.546435 0.42915 1.96341 0.00915022 36 4 1 -2.47419e-09 
1.4661 -0.673413 0.00615234 0.0025 0.546423 0.429134 1.96338 0.00915042 37 4 1 -3.18392e-10 
1.47067 -0.673442 0.00679314 0.0025 0.546409 0.429117 1.96335 0.00915065 38 4 1 -1.80714e-09 
1.47525 -0.673474 0.0075005 0.0025 0.546394 0.429098 1.96332 0.00915091 39 4 1 -2.84502e-09 
1.47982 -0.67351 0.00830136 0.0025 0.546376 0.429077 1.96329 0.00915121 40 4 1 -1.68321e-09 
1.4844 -0.67355 0.00921412 0.0025 0.546356 0.429054 1.96325 0.00915153 41 4 1 -2.29776e-09 
1.48897 -0.673595 0.010262 0.0025 0.546334 0.429028 1.96321 0.00915191 42 4 1 -3.78723e-09 
1.49355 -0.673646 0.0114899 0.0025 0.546309 0.428999 1.96317 0.00915232 43 4 1 -3.70041e-09 
1.49813 -0.673703 0.0129436 0.0025 0.546281 0.428966 1.96312 0.0091528 44 4 1 -3.33713e-09 
-0.497298 -0.673766 0.0146077 0.0025 0.546249 0.42893 1.96307 0.00915334 45 4 1 -5.19892e-09 
-0.492721 -0.673837 0.0163606 0.0025 0.546213 0.428889 1.96301 0.00915395 46 4 1 -5.77296e-09 
-0.488144 -0.673917 0.0180395 0.0025 0.546172 0.428843 1.96295 0.00915463 47 4 1 -4.37467e-09 
-0.483566 -0.674009 0.019663 0.0025 0.546127 0.428792 1.96288 0.00915539 48 4 1 -4.73883e-09 
-0.478988 -0.674115 0.0216064 0.0025 0.546077 0.428736 1.9628 0.00915622 49 4 1 -6.43057e-09 
-0.47441 -0.674235 0.0243148 0.0025 0.546022 0.428675 1.96272 0.00915714 50 4 1 -7.55801e-09 
-0.469831 -0.674366 0.027685 0.0025 0.545961 0.428606 1.96262 0.00915816 51 4 1 -7.51062e-09 
-0.465252 -0.674506 0.0310343 0.0025 0.545893 0.428531 1.96252 0.0091593 52 4 1 -7.55149e-09 
-0.460672 -0.674656 0.033857 0.0025 0.545818 0.428447 1.96241 0.00916056 53 4 1 -6.31626e-09 
-0.456091 -0.674813 0.0361054 0.0025 0.545739 0.428359 1.96229 0.0091619 54 4 1 -2.76064e-09 
-0.45151 -0.674975 0.0374832 0.0025 0.545656 0.428268 1.96217 0.00916328 55 4 1 1.68277e-09 
-0.446928 -0.675136 0.0373214 0.0025 0.545574 0.428177 1.96205 0.00916466 56 4 1 5.90314e-09 
-0.442345 -0.675289 0.0353438 0.0025 0.545497 0.428091 1.96193 0.00916596 57 4 1 1.12596e-08 
-0.437762 -0.675424 0.031267 0.0025 0.545429 0.428017 1.96183 0.00916709 58 4 1 2.08034e-08 
-0.433178 -0.675533 0.0229161 0.0025 0.545378 0.42796 1.96175 0.00916794 59 4 1 2.93674e-08 
-0.428594 -0.6756 0.0102317 0.0025 0.545351 0.427929 1.96171 0.00916841 60 4 1 1.60348e-08 
-0.42401 -0.675643 0.0224118 0.0025 0.545339 0.427918 1.96169 0.00916861 61 5 1 9.99591e-08 
-0.419425 -0.675584 -0.0614843 0.0025 0.54541 0.428 1.96179 0.00916741 62 4 1 2.20791e-07 
-0.414842 -0.67509 -0.147094 0.0025 0.54566 0.428275 1.96214 0.00916321 63 4 1 2.40446e-07 
-0.410262 -0.674293 -0.207775 0.0025 0.546105 0.42877 1.96278 0.00915575 64 4 1 4.38855e-07 
-0.405687 -0.672971 -0.419225 0.0025 0.54689 0.429647 1.9639 0.00914261 65 4 1 8.91927e-07 
-0.40112 -0.670306 -0.804648 0.0025 0.54832 0.431229 1.96595 0.00911876 66 4 1 1.22798e-06 
-0.396568 -0.665976 -1.18205 0.0025 0.550553 0.433684 1.96915 0.00908177 67 4 1 1.23612e-06 
-0.392038 -0.660328 -1.42617 0.0025 0.553469 0.436894 1.97331 0.00903393 68 4 1 1.16634e-06 
-0.387534 -0.653818 -1.61563 0.0025 0.556894 0.440683 1.97819 0.00897836 69 4 1 1.27998e-06 
-0.383059 -0.646494 -1.83747 0.0025 0.560793 0.44501 1.98371 0.00891594 70 4 1 1.50304e-06 
-0.378618 -0.638237 -2.07879 0.0025 0.5652 0.449915 1.98993 0.00884642 71 4 1 1.74823e-06 
-0.374213 -0.629042 -2.34534 0.0025 0.570144 0.455433 1.99687 0.00876972 72 4 1 1.90982e-06 
-0.369848 -0.618903 -2.56644 0.0025 0.57559 0.46153 2.00448 0.00868674 73 4 1 1.92159e-06 
-0.365526 -0.608134 -2.72297 0.0025 0.581423 0.468084 2.01258 0.00859959 74 4 1 1.80992e-06 
-0.361248 -0.597022 -2.79214 0.0025 0.587485 0.474923 2.02095 0.00851086 75 4 1 1.65071e-06 
-0.357015 -0.585897 -2.81179 0.0025 0.593633 0.481891 2.02938 0.00842271 76 4 1 1.51405e-06 
-0.352825 -0.574889 -2.8015 0.0025 0.599778 0.488885 2.03776 0.00833642 77 4 1 1.3978e-06 
-0.348678 -0.564091 -2.77581 0.0025 0.605864 0.495841 2.046 0.00825268 78 4 1 1.27597e-06 
-0.344572 -0.553536 -2.72377 0.0025 0.611848 0.50271 2.05406 0.00817196 79 4 1 1.19137e-06 
-0.340506 -0.543297 -2.68633 0.0025 0.617719 0.509475 2.06192 0.00809429 80 4 1 1.14037e-06 
-0.336478 -0.533295 -2.64845 0.0025 0.623486 0.516146 2.06959 0.00801943 81 4 1 1.08132e-06 
-0.332486 -0.52355 -2.60952 0.0025 0.62915 0.522722 2.07709 0.00794722 82 4 1 1.03588e-06 
-0.32853 -0.51405 -2.57556 0.0025 0.63472 0.529213 2.08442 0.00787748 83 4 1 1.02302e-06 
-0.324609 -0.504758 -2.56057 0.0025 0.64022 0.535644 2.09163 0.00780981 84 4 1 1.02509e-06 
-0.32072 -0.495559 -2.55315 0.0025 0.645678 0.542049 2.09874 0.0077438 85 4 1 1.03816e-06 
-0.316865 -0.486481 -2.56141 0.0025 0.651123 0.548461 2.1058 0.00767905 86 4 1 1.09633e-06 
-0.313041 -0.477386 -2.60451 0.0025 0.656602 0.554935 2.11287 0.00761496 87 4 1 1.16061e-06 
-0.30925 -0.468211 -2.6579 0.0025 0.662161 0.561525 2.12 0.00755103 88 4 1 1.22829e-06 
-0.30549 -0.458914 -2.73714 0.0025 0.667833 0.56827 2.12725 0.0074869 89 4 1 1.2482e-06 
-0.301763 -0.44948 -2.78347 0.0025 0.673615 0.575169 2.13459 0.00742264 90 4 1 1.26515e-06 
-0.298067 -0.439974 -2.85351 0.0025 0.6795 0.582216 2.14203 0.00735836 91 4 1 1.31088e-06 
-0.294404 -0.430329 -2.92563 0.0025 0.685501 0.589426 2.14958 0.00729394 92 4 1 1.26844e-06 
-0.290773 -0.420614 -2.94514 0.0025 0.691576 0.596749 2.15718 0.00722987 93 4 1 1.21739e-06 
-0.287174 -0.410959 -2.96755 0.0025 0.697681 0.604137 2.16477 0.0071666 94 4 1 1.22105e-06 
-0.283606 -0.401275 -3.00142 0.0025 0.70382 0.611592 2.17237 0.00710409 95 4 1 1.18032e-06 
-0.28007 -0.391668 -2.99831 0.0025 0.709972 0.619087 2.17995 0.00704254 96 4 1 1.15842e-06 
-0.276564 -0.38214 -3.02211 0.0025 0.716125 0.626612 2.18748 0.00698202 97 4 1 1.14899e-06 
-0.273088 -0.372621 -3.02875 0.0025 0.722285 0.634169 2.19499 0.00692248 98 4 1 1.09753e-06 
-0.269641 -0.363243 -3.0196 0.0025 0.728426 0.641731 2.20244 0.00686411 99 4 1 1.09779e-06 
-0.266223 -0.353913 -3.04441 0.0025 0.73456 0.64931 2.20984 0.00680679 100 4 1 1.06914e-06 
-0.262834 -0.344665 -3.02819 0.0025 0.740682 0.656897 2.21719 0.00675053 101 4 1 1.02936e-06 
-0.259473 -0.335547 -3.02886 0.0025 0.746776 0.664477 2.22446 0.00669545 102 4 1 1.05349e-06 
-0.256139 -0.326463 -3.05712 0.0025 0.752873 0.672084 2.23171 0.00664123 103 4 1 1.03772e-06 
-0.252831 -0.317427 -3.05694 0.0025 0.758972 0.679716 2.23892 0.00658786 104 4 1 9.65517e-07 
-0.249551 -0.308524 -3.02623 0.0025 0.765033 0.687329 2.24606 0.00653567 105 4 1 9.98396e-07 
-0.246296 -0.299678 -3.07804 0.0025 0.771091 0.694961 2.25315 0.00648432 106 4 1 9.91691e-07 
-0.243066 -0.290838 -3.06186 0.0025 0.777155 0.702621 2.26023 0.00643373 107 4 1 9.0091e-07 
-0.239862 -0.282174 -3.02919 0.0025 0.783169 0.710246 2.2672 0.00638432 108 4 1 9.32484e-07 
-0.236682 -0.273579 -3.0658 0.0025 0.789169 0.717879 2.27414 0.00633578 109 4 1 9.83934e-07 
-0.233526 -0.264967 -3.10476 0.0025 0.795205 0.725575 2.28108 0.00628768 110 4 1 8.95095e-07 
-0.230394 -0.256414 -3.0552 0.0025 0.801219 0.733267 2.28796 0.00624049 111 4 1 8.39959e-07 
-0.227285 -0.248085 -3.04811 0.0025 0.80718 0.740919 2.29475 0.00619441 112 4 1 9.35907e-07 
-0.2242 -0.239675 -3.12445 0.0025 0.81317 0.748627 2.30155 0.00614878 113 4 1 8.87686e-07 
-0.221137 -0.23129 -3.08073 0.0025 0.819165 0.756361 2.30832 0.00610378 114 4 1 7.74611e-07 
-0.218096 -0.223131 -3.03825 0.0025 0.825085 0.764028 2.31498 0.00605998 115 4 1 8.32796e-07 
-0.215076 -0.21501 -3.08316 0.0025 0.830993 0.7717 2.3216 0.0060169 116 4 1 8.98699e-07 
-0.212079 -0.206848 -3.13111 0.0025 0.836947 0.779449 2.32824 0.0059741 117 4 1 8.23372e-07 
-0.209102 -0.198718 -3.09377 0.0025 0.842894 0.78721 2.33484 0.00593195 118 4 1 7.23738e-07 
-0.206147 -0.190813 -3.04045 0.0025 0.848767 0.794903 2.34133 0.0058909 119 4 1 8.0606e-07 
-0.203211 -0.182953 -3.11817 0.0025 0.854642 0.802621 2.3478 0.0058504 120 4 1 8.84373e-07 
-0.200296 -0.174945 -3.17163 0.0025 0.860587 0.810442 2.35432 0.00580999 121 4 1 7.22359e-07 
-0.197401 -0.167063 -3.06566 0.0025 0.86648 0.818217 2.36076 0.00577048 122 4 1 6.06892e-07 
-0.194526 -0.159521 -2.99813 0.0025 0.872244 0.825854 2.36702 0.00573234 123 4 1 8.04216e-07 
-0.191669 -0.151896 -3.15292 0.0025 0.878051 0.833568 2.37331 0.00569443 124 4 1 9.05048e-07 
-0.188831 -0.144038 -3.21505 0.0025 0.883985 0.841456 2.37972 0.0056562 125 4 1 6.29501e-07 
-0.186013 -0.13639 -3.0328 0.0025 0.889828 0.849247 2.386 0.00561906 126 4 1 5.30111e-07 
-0.183212 -0.129151 -2.98974 0.0025 0.895512 0.856863 2.39207 0.0055834 127 4 1 8.43377e-07 
-0.180429 -0.121687 -3.22223 0.0025 0.901305 0.864636 2.39825 0.00554751 128 4 1 8.88073e-07 
-0.177664 -0.113952 -3.24013 0.0025 0.907243 0.872609 2.40457 0.0055112 129 4 1 5.01113e-07 
-0.174918 -0.106564 -2.98733 0.0025 0.913012 0.880382 2.41067 0.00547638 130 4 1 4.30388e-07 
-0.172188 -0.0996705 -2.94353 0.0025 0.918571 0.88791 2.41652 0.00544324 131 4 1 8.08538e-07 
-0.169475 -0.0924956 -3.2054 0.0025 0.924255 0.895617 2.4225 0.00540976 132 4 1 8.87678e-07 
-0.166778 -0.0849774 -3.25972 0.0025 0.930132 0.903585 2.42865 0.00537558 133 4 1 4.92247e-07 
-0.164099 -0.0777811 -3.00097 0.0025 0.935865 0.911385 2.43463 0.00534265 134 4 1 3.84108e-07 
-0.161436 -0.0710505 -2.93988 0.0025 0.941376 0.918921 2.44034 0.00531137 135 4 1 7.48374e-07 
-0.158788 -0.0641195 -3.19465 0.0025 0.946992 0.926611 2.44616 0.00527988 136 4 1 8.26943e-07 
-0.156156 -0.0568399 -3.24158 0.0025 0.952782 0.934537 2.45214 0.00524779 137 4 1 4.12973e-07 
-0.15354 -0.0499107 -2.94542 0.0025 0.958399 0.942252 2.45791 0.00521703 138 4 1 3.03296e-07 
-0.150939 -0.0435244 -2.87573 0.0025 0.963767 0.949666 2.46339 0.00518798 139 4 1 8.02703e-07 
-0.148352 -0.0367861 -3.28833 0.0025 0.96931 0.957327 2.46906 0.00515831 140 4 1 7.27488e-07 
-0.14578 -0.0296496 -3.14127 0.0025 0.974969 0.965125 2.47483 0.00512837 141 4 1 -2.2847e-07 
-0.143223 -0.0236969 -2.27761 0.0025 0.979989 0.972091 2.47989 0.0051021 142 4 1 1.91135e-07 
-0.140678 -0.0185649 -2.7139 0.0025 0.98477 0.97881 2.48469 0.00507733 143 4 1 2.05956e-06 
-0.138146 -0.0110161 -4.37965 0.0025 0.990823 0.987227 2.49085 0.00504631 144 4 1 8.8564e-07 
-0.135632 -0.00244005 -3.26451 0.0025 0.997103 0.995861 2.49721 0.00501453 145 4 1 -2.4275e-06 
-0.133131 0.00138236 -0.383586 0.0025 1.0008 1.00107 2.50081 0.00499598 146 4 1 -6.06084e-07 
-0.130636 0.00316877 -1.89033 0.0025 1.00359 1.00516 2.50353 0.00498209 147 4 1 3.60827e-06 
-0.128149 0.010741 -5.08594 0.0025 1.00926 1.01306 2.5093 0.00495414 148 4 1 9.55126e-07 
-0.125681 0.0195643 -2.88665 0.0025 1.01548 1.0216 2.51554 0.0049238 149 4 1 -3.39429e-06 
-0.123225 0.0218534 0.287952 0.0025 1.01814 1.02542 2.51807 0.00491091 150 4 1 -1.16304e-06 
-0.120771 0.0221568 -0.907751 0.0025 1.01917 1.02698 2.51907 0.00490595 151 4 1 7.44385e-07 
-0.118319 0.02484 -1.1726 0.0025 1.02078 1.02918 2.52071 0.00489823 152 4 1 -8.55056e-07 
-0.115872 0.0257077 0.0162221 0.0025 1.02151 1.0302 2.52143 0.00489469 153 3 1 -1.17301e-06 
-0.113425 0.0249998 0.493878 0.0025 1.02087 1.02932 2.52077 0.0048978 154 4 1 -5.58069e-07 
-0.110975 0.0234936 0.821414 0.0025 1.01951 1.02742 2.51943 0.0049043 155 4 1 -3.00536e-07 
-0.10852 0.0214873 1.02836 0.0025 1.01776 1.02495 2.51769 0.00491275 156 4 1 -1.27685e-07 
-0.106062 0.01919 1.14203 0.0025 1.01579 1.02218 2.51573 0.00492229 157 4 1 1.04292e-09 
-0.103598 0.0167665 1.18052 0.0025 1.01373 1.01929 2.51369 0.00493227 158 4 1 9.57356e-08 
-0.10113 0.0143471 1.16025 0.0025 1.0117 1.01643 2.51167 0.00494217 159 4 1 1.60274e-07 
-0.098656 0.0120305 1.0967 0.0025 1.00977 1.01372 2.50975 0.0049516 160 4 1 1.99508e-07 
-0.0961779 0.00988714 1.00316 0.0025 1.008 1.01123 2.50799 0.00496031 161 4 1 2.18376e-07 
-0.0936957 0.00796333 0.89108 0.0025 1.00642 1.00901 2.50641 0.00496809 162 4 1 2.21534e-07 
-0.0912098 0.00628434 0.770069 0.0025 1.00505 1.00709 2.50504 0.00497487 163 4 1 2.13039e-07 
-0.0887208 0.00485785 0.648083 0.0025 1.00389 1.00546 2.50389 0.00498061 164 4 1 1.96387e-07 
-0.0862292 0.00367729 0.531421 0.0025 1.00294 1.00412 2.50293 0.00498535 165 4 1 1.74583e-07 
-0.0837355 0.00272519 0.424703 0.0025 1.00217 1.00305 2.50217 0.00498916 166 4 1 1.50183e-07 
-0.08124 0.00197677 0.330877 0.0025 1.00157 1.00221 2.50157 0.00499215 167 4 1 1.25282e-07 
-0.0787433 0.00140317 0.251346 0.0025 1.00111 1.00156 2.50111 0.00499444 168 4 1 1.01486e-07 
-0.0762456 0.000974485 0.186203 0.0025 1.00077 1.00108 2.50077 0.00499614 169 4 1 7.99092e-08 
-0.0737472 0.000661985 0.13455 0.0025 1.00052 1.00074 2.50052 0.00499738 170 4 1 6.12015e-08 
-0.0712482 0.000439757 0.0948441 0.0025 1.00035 1.00049 2.50035 0.00499826 171 4 1 4.56163e-08 
-0.0687489 0.000285576 0.065221 0.0025 1.00023 1.00032 2.50022 0.00499887 172 4 1 3.30997e-08 
-0.0662493 0.000181213 0.0437512 0.0025 1.00014 1.0002 2.50014 0.00499929 173 4 1 2.33867e-08 
-0.0637496 0.0001123 0.0286248 0.0025 1.00009 1.00012 2.50009 0.00499956 174 4 1 1.60915e-08 
-0.0612498 6.79209e-05 0.0182604 0.0025 1.00005 1.00008 2.50005 0.00499973 175 4 1 1.07818e-08 
-0.0587499 4.00581e-05 0.0113524 0.0025 1.00003 1.00004 2.50003 0.00499984 176 4 1 7.03366e-09 
-0.0562499 2.30138e-05 0.00687364 0.0025 1.00002 1.00003 2.50002 0.00499991 177 4 1 4.46602e-09 
-0.05375 1.28626e-05 0.00404971 0.0025 1.00001 1.00001 2.50001 0.00499995 178 4 1 2.75858e-09 
-0.05125 6.98237e-06 0.00231898 0.0025 1.00001 1.00001 2.50001 0.00499997 179 4 1 1.65636e-09 
-0.04875 3.67387e-06 0.00128872 0.0025 1 1 2.5 0.00499999 180 4 1 9.65813e-10 
-0.04625 1.86878e-06 0.0006937 0.0025 1 1 2.5 0.00499999 181 4 1 5.46161e-10 
-0.04375 9.15867e-07 0.000360788 0.0025 1 1 2.5 0.005 182 4 1 2.99003e-10 
-0.04125 4.30524e-07 0.000180706 0.0025 1 1 2.5 0.005 183 4 1 1.58107e-10 
-0.03875 1.92921e-07 8.67786e-05 0.0025 1 1 2.5 0.005 184 4 1 8.05043e-11 
-0.03625 8.1689e-08 3.971e-05 0.0025 1 1 2.5 0.005 185 4 1 3.93073e-11 
-0.03375 3.22546e-08 1.71612e-05 0.0025 1 1 2.5 0.005 186 4 1 1.82982e-11 
-0.03125 1.1622e-08 6.90793e-06 0.0025 1 1 2.5 0.005 187 4 1 8.05337e-12 
-0.02875 3.6735e-09 2.52965e-06 0.0025 1 1 2.5 0.005 188 4 1 3.30796e-12 
-0.02625 9.33599e-10 8.0533e-07 0.0025 1 1 2.5 0.005 189 4 1 1.23872e-12 
-0.02375 1.42389e-10 1.97297e-07 0.0025 1 1 2.5 0.005 190 4 1 4.12482e-13 
-0.02125 -1.48184e-11 1.24475e-08 0.0025 1 1 2.5 0.005 191 4 1 1.09274e-13 
-0.01875 1.31646e-11 -2.16139e-08 0.0025 1 1 2.5 0.005 192 5 1 2.53202e-15 
-0.01625 2.71346e-11 -3.08603e-10 0.0025 1 1 2.5 0.005 193 3 1 -1.1773e-14 
-0.01375 2.14485e-11 4.13945e-09 0.0025 1 1 2.5 0.005 194 4 1 -1.52589e-15 
-0.01125 1.30904e-11 4.01411e-09 0.0025 1 1 2.5 0.005 195 4 1 1.34008e-15 
-0.00875 6.82061e-12 2.6435e-09 0.0025 1 1 2.5 0.005 196 4 1 1.62004e-15 
-0.00625 3.11948e-12 1.44263e-09 0.0025 1 1 2.5 0.005 197 4 1 1.16351e-15 
-0.00375 1.23245e-12 6.562e-10 0.0025 1 1 2.5 0.005 198 4 1 6.98108e-16 
-0.00125 3.14889e-13 1.83036e-10 0.0025 1 1 2.5 0.005 199 4 1 4.50484e-16 
0.00125 -3.07545e-13 -1.82695e-10 0.0025 1 1 2.5 0.005 200 5 1 4.51905e-16 
0.00375 -1.2246e-12 -6.562e-10 0.0025 1 1 2.5 0.005 201 4 1 7.0024e-16 
0.00625 -3.11121e-12 -1.442e-09 0.0025 1 1 2.5 0.005 202 4 1 1.15854e-15 
0.00875 -6.81198e-12 -2.64276e-09 0.0025 1 1 2.5 0.005 203 4 1 1.6172e-15 
0.01125 -1.30826e-11 -4.01417e-09 0.0025 1 1 2.5 0.005 204 4 1 1.34932e-15 
0.01375 -2.14409e-11 -4.13763e-09 0.0025 1 1 2.5 0.005 205 4 1 -1.53797e-15 
0.01625 -2.71251e-11 3.06898e-10 0.0025 1 1 2.5 0.005 206 3 1 -1.17584e-14 
0.01875 -1.31569e-11 2.16149e-08 0.0025 1 1 2.5 0.005 207 5 1 2.51958e-15 
0.02125 1.48282e-11 -1.24467e-08 0.0025 1 1 2.5 0.005 208 4 1 1.09271e-13 
0.02375 -1.4238e-10 -1.97299e-07 0.0025 1 1 2.5 0.005 209 4 1 4.12501e-13 
0.02625 -9.33595e-10 -8.05331e-07 0.0025 1 1 2.5 0.005 210 4 1 1.23869e-12 
0.02875 -3.6735e-09 -2.52965e-06 0.0025 1 1 2.5 0.005 211 4 1 3.30801e-12 
0.03125 -1.16219e-08 -6.90793e-06 0.0025 1 1 2.5 0.005 212 4 1 8.05335e-12 
0.03375 -3.22546e-08 -1.71612e-05 0.0025 1 1 2.5 0.005 213 4 1 1.82981e-11 
0.03625 -8.1689e-08 -3.971e-05 0.0025 1 1 2.5 0.005 214 4 1 3.93073e-11 
0.03875 -1.92921e-07 -8.67786e-05 0.0025 1 1 2.5 0.005 215 4 1 8.05043e-11 
0.04125 -4.30524e-07 -0.000180706 0.0025 1 1 2.5 0.005 216 4 1 1.58107e-10 
0.04375 -9.15867e-07 -0.000360788 0.0025 1 1 2.5 0.005 217 4 1 2.99003e-10 
0.04625 -1.86878e-06 -0.0006937 0.0025 1 1 2.5 0.00499999 218 4 1 5.46161e-10 
0.04875 -3.67387e-06 -0.00128872 0.0025 1 1 2.5 0.00499999 219 4 1 9.65813e-10 
0.05125 -6.98237e-06 -0.00231898 0.0025 1.00001 1.00001 2.50001 0.00499997 220 4 1 1.65636e-09 
