# Time [s]: 0.307272
# Columns: pos [m], vel [m/s], acc [m/s^2], mass [kg], dens [kg/m^3], pres [Pa], ene [J/kg], sml [m], id, neighbor, alpha, gradh, ...additional?
1.2954 -0.673099 0.000436241 0.0025 0.511049 0.432725 2.1525 0.0097838 0 4 1 -0.000134226 
1.30018 -0.6731 0.000464742 0.0025 0.536906 0.426187 1.95004 0.00931262 1 4 1 0.000179252 
1.30472 -0.673102 0.000491614 0.0025 0.548235 0.430856 1.9685 0.00912018 2 3 1 -1.90586e-05 
1.3093 -0.673104 0.000517989 0.0025 0.545969 0.429191 1.96464 0.00915803 3 5 1 3.48582e-06 
1.31388 -0.673105 0.000542498 0.0025 0.546366 0.429345 1.96457 0.00915137 4 4 1 -1.38732e-07 
1.31846 -0.673107 0.000565431 0.0025 0.546376 0.429314 1.96434 0.0091512 5 4 1 1.43675e-07 
1.32303 -0.673109 0.000589306 0.0025 0.546398 0.429312 1.96428 0.00915084 6 4 1 -3.57066e-09 
1.32761 -0.673112 0.000617459 0.0025 0.54641 0.429308 1.96422 0.00915063 7 4 1 8.16365e-09 
1.33218 -0.673114 0.000651473 0.0025 0.546423 0.429306 1.96416 0.00915041 8 4 1 4.67946e-09 
1.33676 -0.673117 0.000689993 0.0025 0.546435 0.429304 1.96411 0.00915022 9 4 1 5.38057e-09 
1.34133 -0.67312 0.000730342 0.0025 0.546445 0.429302 1.96407 0.00915006 10 4 1 -2.34115e-09 
1.34591 -0.673123 0.000771673 0.0025 0.546454 0.4293 1.96402 0.0091499 11 4 1 4.62134e-09 
1.35048 -0.673127 0.000816639 0.0025 0.546463 0.429298 1.96398 0.00914975 12 4 1 2.73187e-09 
1.35506 -0.67313 0.000869716 0.0025 0.54647 0.429296 1.96395 0.00914963 13 4 1 3.43214e-09 
1.35963 -0.673134 0.000933348 0.0025 0.546476 0.429293 1.96392 0.00914952 14 4 1 1.95642e-09 
1.36421 -0.673139 0.00100537 0.0025 0.546482 0.429291 1.96389 0.00914943 15 4 1 -1.76212e-09 
1.36878 -0.673143 0.00108035 0.0025 0.546487 0.429288 1.96385 0.00914935 16 4 1 4.71713e-09 
1.37335 -0.673148 0.00115439 0.0025 0.546491 0.429285 1.96383 0.00914928 17 4 1 1.29855e-09 
1.37793 -0.673154 0.00122955 0.0025 0.546494 0.429282 1.9638 0.00914923 18 4 1 -1.38122e-09 
1.3825 -0.673159 0.00131388 0.0025 0.546497 0.429279 1.96377 0.00914918 19 4 1 2.49007e-09 
1.38708 -0.673166 0.0014157 0.0025 0.546499 0.429275 1.96375 0.00914914 20 4 1 9.21046e-10 
1.39165 -0.673172 0.00153582 0.0025 0.546501 0.429272 1.96373 0.00914912 21 4 1 9.04782e-10 
1.39623 -0.67318 0.00166484 0.0025 0.546502 0.429267 1.96371 0.00914911 22 4 1 7.52765e-10 
1.4008 -0.673187 0.00179015 0.0025 0.546502 0.429263 1.96369 0.0091491 23 3 1 -4.70151e-10 
1.40538 -0.673196 0.00190909 0.0025 0.546501 0.429258 1.96366 0.00914911 24 4 1 1.18623e-09 
1.40995 -0.673205 0.00203648 0.0025 0.5465 0.429253 1.96364 0.00914913 25 4 1 4.16313e-10 
1.41453 -0.673215 0.00219674 0.0025 0.546499 0.429247 1.96362 0.00914915 26 4 1 -7.61977e-10 
1.4191 -0.673226 0.00240403 0.0025 0.546497 0.429241 1.9636 0.00914919 27 4 1 7.14072e-10 
1.42368 -0.673237 0.00264785 0.0025 0.546494 0.429235 1.96359 0.00914924 28 4 1 2.71624e-10 
1.42825 -0.67325 0.00289983 0.0025 0.54649 0.429228 1.96357 0.0091493 29 4 1 -1.39212e-09 
1.43282 -0.673263 0.00313818 0.0025 0.546486 0.42922 1.96355 0.00914937 30 4 1 -1.15705e-10 
1.4374 -0.673278 0.00336904 0.0025 0.54648 0.429211 1.96352 0.00914946 31 4 1 1.32478e-09 
1.44197 -0.673294 0.00362589 0.0025 0.546474 0.429202 1.96351 0.00914956 32 4 1 -1.59856e-09 
1.44655 -0.673312 0.00394722 0.0025 0.546467 0.429192 1.96348 0.00914968 33 4 1 -1.75322e-09 
1.45112 -0.673331 0.00435098 0.0025 0.54646 0.429181 1.96346 0.0091498 34 4 1 9.69126e-10 
1.4557 -0.673353 0.00482628 0.0025 0.546451 0.429169 1.96344 0.00914996 35 4 1 -1.55693e-09 
1.46027 -0.673376 0.00534848 0.0025 0.546441 0.429156 1.96341 0.00915013 36 4 1 -2.37725e-09 
1.46485 -0.673401 0.00590401 0.0025 0.546429 0.429141 1.96339 0.00915032 37 4 1 -1.9879e-10 
1.46942 -0.673429 0.00650292 0.0025 0.546416 0.429124 1.96336 0.00915054 38 4 1 -1.68191e-09 
1.474 -0.67346 0.00716944 0.0025 0.546401 0.429106 1.96333 0.00915079 39 4 1 -2.71571e-09 
1.47857 -0.673495 0.00792508 0.0025 0.546384 0.429086 1.9633 0.00915107 40 4 1 -1.54232e-09 
1.48315 -0.673534 0.00878789 0.0025 0.546366 0.429064 1.96326 0.00915138 41 4 1 -2.14748e-09 
1.48773 -0.673577 0.00978878 0.0025 0.546345 0.429039 1.96323 0.00915173 42 4 1 -3.63871e-09 
1.4923 -0.673625 0.0109731 0.0025 0.546321 0.429012 1.96319 0.00915213 43 4 1 -3.54132e-09 
1.49688 -0.673679 0.0123611 0.0025 0.546294 0.428981 1.96314 0.00915258 44 4 1 -3.10276e-09 
-0.498545 -0.673739 0.0138915 0.0025 0.546263 0.428946 1.96309 0.00915309 45 4 1 -4.80217e-09 
-0.493969 -0.673807 0.0154236 0.0025 0.546229 0.428907 1.96304 0.00915367 46 4 1 -5.2187e-09 
-0.489392 -0.673885 0.0168722 0.0025 0.546191 0.428863 1.96297 0.00915431 47 4 1 -3.87913e-09 
-0.484814 -0.673974 0.0184209 0.0025 0.546148 0.428815 1.96291 0.00915502 48 4 1 -4.63238e-09 
-0.480237 -0.674076 0.0205108 0.0025 0.546101 0.428763 1.96284 0.00915581 49 4 1 -6.77743e-09 
-0.475658 -0.674191 0.0233954 0.0025 0.546049 0.428704 1.96276 0.00915668 50 4 1 -7.98069e-09 
-0.47108 -0.674315 0.0267472 0.0025 0.545991 0.428639 1.96267 0.00915767 51 4 1 -7.68178e-09 
-0.466501 -0.67445 0.0299881 0.0025 0.545924 0.428565 1.96257 0.00915878 52 4 1 -7.72108e-09 
-0.461921 -0.674594 0.03289 0.0025 0.545852 0.428484 1.96246 0.00916 53 4 1 -6.93934e-09 
-0.457341 -0.674747 0.0354039 0.0025 0.545773 0.428397 1.96234 0.00916131 54 4 1 -3.86003e-09 
-0.45276 -0.674906 0.0371149 0.0025 0.545692 0.428307 1.96222 0.00916268 55 4 1 1.65094e-10 
-0.448178 -0.675067 0.0375479 0.0025 0.545609 0.428215 1.9621 0.00916407 56 4 1 3.77153e-09 
-0.443596 -0.675223 0.0363758 0.0025 0.545529 0.428127 1.96198 0.00916541 57 4 1 9.13506e-09 
-0.439013 -0.675365 0.032612 0.0025 0.545457 0.428047 1.96187 0.00916662 58 4 1 1.79181e-08 
-0.434429 -0.675487 0.0261309 0.0025 0.5454 0.427984 1.96178 0.00916759 59 4 1 2.64248e-08 
-0.429845 -0.675574 0.017037 0.0025 0.545363 0.427943 1.96173 0.0091682 60 4 1 1.83695e-08 
-0.425261 -0.675607 0.0131296 0.0025 0.545343 0.427921 1.96169 0.00916854 61 5 1 4.9549e-08 
-0.420677 -0.67565 -0.00987209 0.0025 0.545366 0.42795 1.96172 0.00916816 62 4 1 1.77882e-07 
-0.416093 -0.675337 -0.118237 0.0025 0.545534 0.428136 1.96196 0.00916534 63 4 1 2.4048e-07 
-0.411511 -0.674649 -0.180346 0.0025 0.545896 0.428535 1.96248 0.00915926 64 4 1 3.11355e-07 
-0.406933 -0.673631 -0.300274 0.0025 0.546505 0.429217 1.96335 0.00914905 65 4 1 6.77144e-07 
-0.402362 -0.67163 -0.626228 0.0025 0.54762 0.430456 1.96495 0.00913042 66 4 1 1.11578e-06 
-0.397803 -0.668026 -1.02793 0.0025 0.549502 0.432528 1.96764 0.00909915 67 4 1 1.25884e-06 
-0.393263 -0.662884 -1.33244 0.0025 0.55214 0.435429 1.97141 0.00905568 68 4 1 1.18327e-06 
-0.388747 -0.65673 -1.53117 0.0025 0.555352 0.438975 1.97599 0.00900329 69 4 1 1.19693e-06 
-0.38426 -0.649796 -1.72945 0.0025 0.559032 0.443053 1.98122 0.00894403 70 4 1 1.38527e-06 
-0.379803 -0.641979 -1.96405 0.0025 0.563196 0.447682 1.98711 0.0088779 71 4 1 1.62008e-06 
-0.375382 -0.633262 -2.21211 0.0025 0.567879 0.452902 1.9937 0.0088047 72 4 1 1.82884e-06 
-0.370998 -0.62356 -2.46181 0.0025 0.57308 0.458717 2.00098 0.00872479 73 4 1 1.9132e-06 
-0.366657 -0.613106 -2.64439 0.0025 0.578724 0.465048 2.00884 0.0086397 74 4 1 1.85414e-06 
-0.362358 -0.602161 -2.75672 0.0025 0.584668 0.471741 2.01707 0.00855186 75 4 1 1.71007e-06 
-0.358104 -0.591086 -2.79234 0.0025 0.590761 0.478631 2.02545 0.00846366 76 4 1 1.55529e-06 
-0.353894 -0.580071 -2.79387 0.0025 0.596883 0.485586 2.03382 0.00837685 77 4 1 1.42966e-06 
-0.349727 -0.569228 -2.77109 0.0025 0.602966 0.492525 2.04208 0.00829234 78 4 1 1.32049e-06 
-0.345602 -0.558592 -2.73734 0.0025 0.608968 0.4994 2.05018 0.00821061 79 4 1 1.2161e-06 
-0.341517 -0.548271 -2.68657 0.0025 0.614862 0.506179 2.0581 0.0081319 80 4 1 1.15006e-06 
-0.33747 -0.538204 -2.65341 0.0025 0.620646 0.512858 2.06582 0.00805612 81 4 1 1.10366e-06 
-0.33346 -0.528388 -2.61639 0.0025 0.626332 0.519447 2.07336 0.00798298 82 4 1 1.04911e-06 
-0.329487 -0.518823 -2.58058 0.0025 0.631922 0.525948 2.08074 0.00791237 83 4 1 1.00694e-06 
-0.325548 -0.509486 -2.54664 0.0025 0.637422 0.532369 2.08797 0.0078441 84 4 1 1.01509e-06 
-0.321642 -0.500282 -2.54777 0.0025 0.642868 0.538749 2.09508 0.00777764 85 4 1 1.01935e-06 
-0.31777 -0.4912 -2.53714 0.0025 0.648288 0.545119 2.10213 0.00771263 86 4 1 1.04594e-06 
-0.31393 -0.482172 -2.56538 0.0025 0.653711 0.551517 2.10914 0.00764863 87 4 1 1.11737e-06 
-0.310121 -0.473091 -2.61359 0.0025 0.659194 0.558005 2.1162 0.00758502 88 4 1 1.17982e-06 
-0.306344 -0.463929 -2.67863 0.0025 0.664772 0.564627 2.12334 0.00752137 89 4 1 1.22968e-06 
-0.3026 -0.454599 -2.7465 0.0025 0.670465 0.571407 2.13059 0.00745751 90 4 1 1.24069e-06 
-0.298887 -0.445204 -2.79693 0.0025 0.676262 0.578336 2.13794 0.00739358 91 4 1 1.26838e-06 
-0.295206 -0.435696 -2.86952 0.0025 0.682164 0.585415 2.14539 0.00732961 92 4 1 1.28701e-06 
-0.291557 -0.426049 -2.92374 0.0025 0.688169 0.592639 2.15292 0.00726566 93 4 1 1.22201e-06 
-0.28794 -0.416416 -2.92903 0.0025 0.694221 0.599947 2.16047 0.00720232 94 4 1 1.20757e-06 
-0.284355 -0.406809 -2.97271 0.0025 0.700305 0.607321 2.16803 0.00713974 95 4 1 1.19849e-06 
-0.2808 -0.397205 -2.98296 0.0025 0.70642 0.614756 2.17558 0.00707794 96 4 1 1.14192e-06 
-0.277277 -0.387698 -2.98288 0.0025 0.712531 0.622214 2.18309 0.00701724 97 4 1 1.15094e-06 
-0.273783 -0.378221 -3.01672 0.0025 0.718652 0.62971 2.19057 0.00695747 98 4 1 1.11349e-06 
-0.270319 -0.368813 -2.99992 0.0025 0.72477 0.637226 2.19801 0.00689874 99 4 1 1.07927e-06 
-0.266884 -0.359525 -3.01432 0.0025 0.73087 0.644747 2.20539 0.00684117 100 4 1 1.08353e-06 
-0.263478 -0.350268 -3.02307 0.0025 0.736967 0.652288 2.21273 0.00678457 101 4 1 1.03301e-06 
-0.260099 -0.34113 -3.00517 0.0025 0.74304 0.659826 2.22 0.00672912 102 4 1 1.02381e-06 
-0.256748 -0.332093 -3.02207 0.0025 0.749095 0.667367 2.22722 0.00667472 103 4 1 1.04428e-06 
-0.253424 -0.323078 -3.04325 0.0025 0.755159 0.674942 2.23442 0.00662112 104 4 1 9.9265e-07 
-0.250127 -0.314118 -3.02185 0.0025 0.761207 0.68252 2.24156 0.00656852 105 4 1 9.58822e-07 
-0.246856 -0.305329 -3.02393 0.0025 0.767224 0.690087 2.24863 0.006517 106 4 1 9.97181e-07 
-0.24361 -0.296513 -3.06204 0.0025 0.773252 0.697688 2.25568 0.0064662 107 4 1 9.46939e-07 
-0.24039 -0.287778 -3.02872 0.0025 0.779265 0.705294 2.26268 0.0064163 108 4 1 8.93089e-07 
-0.237194 -0.279212 -3.02136 0.0025 0.785235 0.712872 2.26959 0.00636752 109 4 1 9.39807e-07 
-0.234022 -0.270678 -3.05887 0.0025 0.791209 0.720478 2.27649 0.00631944 110 4 1 9.61673e-07 
-0.230874 -0.262105 -3.08741 0.0025 0.797212 0.728139 2.28338 0.00627185 111 4 1 8.47285e-07 
-0.22775 -0.253684 -3.01285 0.0025 0.80317 0.735768 2.29019 0.00622533 112 4 1 8.48609e-07 
-0.224649 -0.245404 -3.05692 0.0025 0.809091 0.743377 2.29693 0.00617977 113 4 1 9.39158e-07 
-0.22157 -0.237024 -3.1051 0.0025 0.815057 0.751059 2.30369 0.00613454 114 4 1 8.31086e-07 
-0.218514 -0.22875 -3.03991 0.0025 0.820995 0.758729 2.31039 0.00609017 115 4 1 7.70665e-07 
-0.21548 -0.220667 -3.0308 0.0025 0.826868 0.766341 2.31698 0.00604691 116 4 1 8.47171e-07 
-0.212467 -0.212599 -3.07618 0.0025 0.832751 0.773986 2.32356 0.0060042 117 4 1 8.84063e-07 
-0.209476 -0.204477 -3.11844 0.0025 0.838677 0.781706 2.33016 0.00596177 118 4 1 7.85882e-07 
-0.206505 -0.196449 -3.05771 0.0025 0.844577 0.789412 2.3367 0.00592012 119 4 1 7.08427e-07 
-0.203555 -0.188633 -3.02499 0.0025 0.850402 0.797048 2.34313 0.00587957 120 4 1 8.24404e-07 
-0.200626 -0.180784 -3.12045 0.0025 0.856253 0.804739 2.34957 0.0058394 121 4 1 8.66401e-07 
-0.197716 -0.172827 -3.14842 0.0025 0.862168 0.812526 2.35605 0.00579933 122 4 1 6.61354e-07 
-0.194826 -0.16506 -3.00942 0.0025 0.867994 0.82022 2.3624 0.00576041 123 4 1 6.18366e-07 
-0.191955 -0.15759 -3.00448 0.0025 0.87371 0.827801 2.36861 0.00572272 124 4 1 8.45995e-07 
-0.189103 -0.149969 -3.16255 0.0025 0.879514 0.835512 2.37489 0.00568496 125 4 1 8.63594e-07 
-0.18627 -0.14215 -3.17989 0.0025 0.885418 0.843363 2.38126 0.00564705 126 4 1 5.65559e-07 
-0.183456 -0.134638 -2.97681 0.0025 0.891188 0.851066 2.38745 0.00561049 127 4 1 5.61615e-07 
-0.18066 -0.127457 -3.00883 0.0025 0.896834 0.858636 2.39349 0.00557517 128 4 1 8.7793e-07 
-0.177881 -0.119973 -3.22456 0.0025 0.902627 0.866411 2.39966 0.00553939 129 4 1 8.35579e-07 
-0.17512 -0.1123 -3.20174 0.0025 0.908529 0.874337 2.40593 0.0055034 130 4 1 4.39836e-07 
-0.172378 -0.105057 -2.92552 0.0025 0.914218 0.882012 2.41194 0.00546915 131 4 1 4.59354e-07 
-0.169651 -0.098201 -2.95895 0.0025 0.919733 0.889485 2.41774 0.00543636 132 4 1 8.5515e-07 
-0.166941 -0.0910183 -3.21697 0.0025 0.925422 0.897199 2.42372 0.00540294 133 4 1 8.36555e-07 
-0.164248 -0.0835431 -3.21616 0.0025 0.931266 0.905125 2.42984 0.00536904 134 4 1 4.39684e-07 
-0.161572 -0.076463 -2.95559 0.0025 0.936929 0.912836 2.43573 0.00533659 135 4 1 4.05514e-07 
-0.158912 -0.0697918 -2.93993 0.0025 0.942397 0.920318 2.4414 0.00530562 136 4 1 7.75583e-07 
-0.156266 -0.0628526 -3.19881 0.0025 0.948002 0.927994 2.4472 0.00527425 137 4 1 7.97235e-07 
-0.153637 -0.0556242 -3.21033 0.0025 0.953763 0.935882 2.45315 0.00524239 138 4 1 3.63845e-07 
-0.151024 -0.0487938 -2.89551 0.0025 0.959316 0.943514 2.45884 0.00521205 139 4 1 3.16467e-07 
-0.148425 -0.0424895 -2.87582 0.0025 0.964638 0.95087 2.46428 0.00518329 140 4 1 8.33881e-07 
-0.145841 -0.0357433 -3.29374 0.0025 0.97017 0.958515 2.46994 0.00515374 141 4 1 6.82587e-07 
-0.143271 -0.0286462 -3.09122 0.0025 0.975787 0.966256 2.47566 0.00512407 142 4 1 -2.94031e-07 
-0.140717 -0.022832 -2.20365 0.0025 0.980718 0.973105 2.48063 0.0050983 143 4 1 2.63395e-07 
-0.138173 -0.0177472 -2.77347 0.0025 0.985479 0.9798 2.4854 0.00507368 144 4 1 2.1383e-06 
-0.135643 -0.0100601 -4.4226 0.0025 0.991579 0.988276 2.49162 0.00504246 145 4 1 7.09909e-07 
-0.133131 -0.00160518 -3.10323 0.0025 0.997767 0.996782 2.49788 0.00501119 146 4 1 -2.54399e-06 
-0.130632 0.00185514 -0.258631 0.0025 1.00127 1.00174 2.50128 0.00499364 147 4 1 -3.81704e-07 
-0.128137 0.00369812 -2.07027 0.0025 1.00408 1.00585 2.50401 0.00497969 148 4 1 3.69179e-06 
-0.125652 0.011521 -5.09004 0.0025 1.00984 1.01386 2.50988 0.00495129 149 4 1 6.38244e-07 
-0.123186 0.0200695 -2.64204 0.0025 1.01589 1.02218 2.51594 0.00492179 150 4 1 -3.39507e-06 
-0.12073 0.0220068 0.302445 0.0025 1.01836 1.02574 2.51829 0.00490985 151 4 1 -9.91664e-07 
-0.118276 0.0224651 -0.956162 0.0025 1.01937 1.02726 2.51927 0.00490498 152 4 1 6.04123e-07 
-0.115825 0.0249347 -0.969248 0.0025 1.02085 1.02928 2.52077 0.00489789 153 4 1 -9.12846e-07 
-0.113378 0.0255166 0.0760908 0.0025 1.02138 1.03001 2.52129 0.00489535 154 3 1 -1.05109e-06 
-0.11093 0.0247447 0.508447 0.0025 1.02065 1.02901 2.52056 0.00489884 155 4 1 -5.15691e-07 
-0.108479 0.0232173 0.828102 0.0025 1.01928 1.02709 2.5192 0.00490543 156 4 1 -2.83636e-07 
-0.106024 0.0212085 1.02694 0.0025 1.01752 1.02462 2.51746 0.00491389 157 4 1 -1.19861e-07 
-0.103565 0.0189199 1.13639 0.0025 1.01556 1.02186 2.51551 0.00492339 158 4 1 5.60351e-09 
-0.101101 0.0165124 1.17162 0.0025 1.01352 1.01899 2.51348 0.0049333 159 4 1 9.81663e-08 
-0.0986318 0.0141143 1.14913 0.0025 1.01151 1.01616 2.51148 0.00494311 160 4 1 1.61264e-07 
-0.0961578 0.0118226 1.08406 0.0025 1.0096 1.01348 2.50958 0.00495244 161 4 1 1.99283e-07 
-0.0936794 0.00970645 0.989727 0.0025 1.00785 1.01102 2.50784 0.00496103 162 4 1 2.17127e-07 
-0.0911968 0.00781053 0.877552 0.0025 1.0063 1.00884 2.50629 0.0049687 163 4 1 2.19464e-07 
-0.0887106 0.00615875 0.757099 0.0025 1.00495 1.00695 2.50494 0.00497537 164 4 1 2.10389e-07 
-0.0862214 0.00475761 0.636205 0.0025 1.00381 1.00535 2.50381 0.00498101 165 4 1 1.93419e-07 
-0.0837296 0.0035996 0.521009 0.0025 1.00288 1.00404 2.50287 0.00498566 166 4 1 1.7155e-07 
-0.0812358 0.00266676 0.415948 0.0025 1.00213 1.00298 2.50212 0.0049894 167 4 1 1.47297e-07 
-0.0787402 0.0019341 0.323803 0.0025 1.00154 1.00216 2.50153 0.00499232 168 4 1 1.22693e-07 
-0.0762434 0.00137295 0.245845 0.0025 1.00109 1.00153 2.50109 0.00499456 169 4 1 9.92801e-08 
-0.0737457 0.0009537 0.18208 0.0025 1.00076 1.00106 2.50075 0.00499623 170 4 1 7.81141e-08 
-0.0712472 0.00064812 0.131566 0.0025 1.00051 1.00072 2.50051 0.00499744 171 4 1 5.98009e-08 
-0.0687482 0.000430788 0.0927592 0.0025 1.00034 1.00048 2.50034 0.0049983 172 4 1 4.45658e-08 
-0.0662489 0.000279955 0.063813 0.0025 1.00022 1.00031 2.50022 0.0049989 173 4 1 3.23408e-08 
-0.0637493 0.000177804 0.0428324 0.0025 1.00014 1.0002 2.50014 0.0049993 174 4 1 2.28581e-08 
-0.0612496 0.000110305 0.0280458 0.0025 1.00009 1.00012 2.50009 0.00499957 175 4 1 1.57364e-08 
-0.0587498 6.67968e-05 0.0179085 0.0025 1.00005 1.00007 2.50005 0.00499974 176 4 1 1.05517e-08 
-0.0562499 3.94513e-05 0.0111465 0.0025 1.00003 1.00004 2.50003 0.00499984 177 4 1 6.89e-09 
-0.0537499 2.27021e-05 0.00675816 0.0025 1.00002 1.00003 2.50002 0.00499991 178 4 1 4.37974e-09 
-0.05125 1.27119e-05 0.00398792 0.0025 1.00001 1.00001 2.50001 0.00499995 179 4 1 2.70888e-09 
-0.04875 6.91525e-06 0.00228771 0.0025 1.00001 1.00001 2.50001 0.00499997 180 4 1 1.62902e-09 
-0.04625 3.6474e-06 0.00127397 0.0025 1 1 2.5 0.00499999 181 4 1 9.51556e-10 
-0.04375 1.86052e-06 0.000687392 0.0025 1 1 2.5 0.00499999 182 4 1 5.39194e-10 
-0.04125 9.14804e-07 0.000358492 0.0025 1 1 2.5 0.005 183 4 1 2.95879e-10 
-0.03875 4.3169e-07 0.000180135 0.0025 1 1 2.5 0.005 184 4 1 1.56879e-10 
-0.03625 1.94349e-07 8.68352e-05 0.0025 1 1 2.5 0.005 185 4 1 8.01314e-11 
-0.03375 8.27732e-08 3.99207e-05 0.0025 1 1 2.5 0.005 186 4 1 3.92718e-11 
-0.03125 3.29299e-08 1.73531e-05 0.0025 1 1 2.5 0.005 187 4 1 1.83645e-11 
-0.02875 1.19896e-08 7.03871e-06 0.0025 1 1 2.5 0.005 188 4 1 8.12838e-12 
-0.02625 3.85055e-09 2.60599e-06 0.0025 1 1 2.5 0.005 189 4 1 3.36317e-12 
-0.02375 1.00791e-09 8.43619e-07 0.0025 1 1 2.5 0.005 190 4 1 1.27372e-12 
-0.02125 1.67288e-10 2.14514e-07 0.0025 1 1 2.5 0.005 191 4 1 4.28803e-13 
-0.01875 -1.05542e-11 2.25315e-08 0.0025 1 1 2.5 0.005 192 4 1 1.17905e-13 
-0.01625 8.57552e-12 -2.24004e-08 0.0025 1 1 2.5 0.005 193 5 1 8.45723e-15 
-0.01375 2.51542e-11 -1.39732e-09 0.0025 1 1 2.5 0.005 194 3 1 -1.20583e-14 
-0.01125 2.06639e-11 3.73598e-09 0.0025 1 1 2.5 0.005 195 4 1 -1.96039e-15 
-0.00875 1.28672e-11 3.80192e-09 0.0025 1 1 2.5 0.005 196 4 1 1.13438e-15 
-0.00625 6.78444e-12 2.55113e-09 0.0025 1 1 2.5 0.005 197 4 1 1.56852e-15 
-0.00375 3.03238e-12 1.33304e-09 0.0025 1 1 2.5 0.005 198 4 1 1.24913e-15 
-0.00125 8.39266e-13 4.00917e-10 0.0025 1 1 2.5 0.005 199 5 1 9.63496e-16 
0.00125 -8.31362e-13 -4.00803e-10 0.0025 1 1 2.5 0.005 200 5 1 9.65272e-16 
0.00375 -3.02388e-12 -1.33241e-09 0.0025 1 1 2.5 0.005 201 4 1 1.24949e-15 
0.00625 -6.77557e-12 -2.55062e-09 0.0025 1 1 2.5 0.005 202 4 1 1.56675e-15 
0.00875 -1.28576e-11 -3.80226e-09 0.0025 1 1 2.5 0.005 203 4 1 1.12799e-15 
0.01125 -2.06548e-11 -3.73393e-09 0.0025 1 1 2.5 0.005 204 4 1 -1.95328e-15 
0.01375 -2.51442e-11 1.39721e-09 0.0025 1 1 2.5 0.005 205 3 1 -1.20707e-14 
0.01625 -8.57013e-12 2.23996e-08 0.0025 1 1 2.5 0.005 206 5 1 8.47287e-15 
0.01875 1.05665e-11 -2.25305e-08 0.0025 1 1 2.5 0.005 207 4 1 1.17894e-13 
0.02125 -1.6728e-10 -2.14516e-07 0.0025 1 1 2.5 0.005 208 4 1 4.28805e-13 
0.02375 -1.0079e-09 -8.4362e-07 0.0025 1 1 2.5 0.005 209 4 1 1.27373e-12 
0.02625 -3.85055e-09 -2.60599e-06 0.0025 1 1 2.5 0.005 210 4 1 3.36314e-12 
0.02875 -1.19896e-08 -7.03871e-06 0.0025 1 1 2.5 0.005 211 4 1 8.12843e-12 
0.03125 -3.29299e-08 -1.73531e-05 0.0025 1 1 2.5 0.005 212 4 1 1.83645e-11 
0.03375 -8.27732e-08 -3.99207e-05 0.0025 1 1 2.5 0.005 213 4 1 3.92718e-11 
0.03625 -1.94349e-07 -8.68352e-05 0.0025 1 1 2.5 0.005 214 4 1 8.01314e-11 
0.03875 -4.3169e-07 -0.000180135 0.0025 1 1 2.5 0.005 215 4 1 1.56879e-10 
0.04125 -9.14804e-07 -0.000358492 0.0025 1 1 2.5 0.005 216 4 1 2.95879e-10 
0.04375 -1.86052e-06 -0.000687392 0.0025 1 1 2.5 0.00499999 217 4 1 5.39194e-10 
0.04625 -3.6474e-06 -0.00127397 0.0025 1 1 2.5 0.00499999 218 4 1 9.51556e-10 
0.04875 -6.91525e-06 -0.00228771 0.0025 1.00001 1.00001 2.50001 0.00499997 219 4 1 1.62902e-09 
