# Time [s]: 0.302952
# Columns: pos [m], vel [m/s], acc [m/s^2], mass [kg], dens [kg/m^3], pres [Pa], ene [J/kg], sml [m], id, neighbor, alpha, gradh, ...additional?
1.29831 -0.673101 0.000458361 0.0025 0.511048 0.432724 2.1525 0.00978381 0 4 1 -0.000134226 
1.30309 -0.673102 0.000490301 0.0025 0.536905 0.426186 1.95004 0.00931264 1 4 1 0.000179251 
1.30763 -0.673104 0.000519598 0.0025 0.548234 0.430855 1.9685 0.00912019 2 3 1 -1.90586e-05 
1.31221 -0.673106 0.000549501 0.0025 0.545968 0.42919 1.96464 0.00915804 3 5 1 3.48582e-06 
1.31679 -0.673108 0.000579169 0.0025 0.546365 0.429344 1.96457 0.00915139 4 4 1 -1.38745e-07 
1.32136 -0.67311 0.000607131 0.0025 0.546375 0.429313 1.96434 0.00915122 5 4 1 1.43662e-07 
1.32594 -0.673112 0.000633561 0.0025 0.546397 0.42931 1.96428 0.00915086 6 4 1 -3.57822e-09 
1.33051 -0.673115 0.000661482 0.0025 0.546409 0.429306 1.96421 0.00915065 7 4 1 8.16124e-09 
1.33509 -0.673117 0.000695017 0.0025 0.546422 0.429304 1.96416 0.00915044 8 4 1 4.67681e-09 
1.33966 -0.67312 0.00073614 0.0025 0.546433 0.429302 1.96411 0.00915025 9 4 1 5.37117e-09 
1.34424 -0.673123 0.000783056 0.0025 0.546443 0.4293 1.96407 0.00915008 10 4 1 -2.35837e-09 
1.34881 -0.673127 0.000832134 0.0025 0.546453 0.429298 1.96402 0.00914992 11 4 1 4.60243e-09 
1.35339 -0.67313 0.000881911 0.0025 0.546461 0.429296 1.96398 0.00914978 12 4 1 2.71939e-09 
1.35796 -0.673134 0.000935371 0.0025 0.546468 0.429294 1.96394 0.00914966 13 4 1 3.42821e-09 
1.36254 -0.673139 0.000998015 0.0025 0.546474 0.429291 1.96391 0.00914956 14 4 1 1.9539e-09 
1.36711 -0.673143 0.0010731 0.0025 0.54648 0.429288 1.96388 0.00914947 15 4 1 -1.77443e-09 
1.37169 -0.673148 0.00115825 0.0025 0.546485 0.429285 1.96385 0.00914939 16 4 1 4.68966e-09 
1.37626 -0.673153 0.00124691 0.0025 0.546488 0.429282 1.96382 0.00914933 17 4 1 1.26264e-09 
1.38084 -0.673159 0.00133402 0.0025 0.546491 0.429279 1.9638 0.00914928 18 4 1 -1.41043e-09 
1.38541 -0.673165 0.00142169 0.0025 0.546494 0.429275 1.96377 0.00914923 19 4 1 2.4785e-09 
1.38999 -0.673172 0.00151968 0.0025 0.546496 0.429272 1.96375 0.0091492 20 4 1 9.21535e-10 
1.39456 -0.673179 0.00163883 0.0025 0.546497 0.429267 1.96372 0.00914918 21 4 1 8.9491e-10 
1.39914 -0.673187 0.00178134 0.0025 0.546498 0.429263 1.9637 0.00914917 22 3 1 7.09895e-10 
1.40371 -0.673195 0.00193647 0.0025 0.546497 0.429258 1.96368 0.00914918 23 4 1 -5.45844e-10 
1.40829 -0.673204 0.00208821 0.0025 0.546497 0.429253 1.96366 0.00914919 24 4 1 1.10844e-09 
1.41286 -0.673214 0.00223163 0.0025 0.546495 0.429247 1.96364 0.00914921 25 4 1 3.75807e-10 
1.41743 -0.673225 0.00238365 0.0025 0.546493 0.429241 1.96362 0.00914925 26 4 1 -7.55469e-10 
1.42201 -0.673236 0.00257469 0.0025 0.546491 0.429235 1.9636 0.00914929 27 4 1 7.28854e-10 
1.42658 -0.673249 0.00282394 0.0025 0.546487 0.429228 1.96358 0.00914935 28 4 1 2.33244e-10 
1.43116 -0.673263 0.0031203 0.0025 0.546483 0.42922 1.96356 0.00914942 29 4 1 -1.51503e-09 
1.43573 -0.673277 0.00342954 0.0025 0.546478 0.429211 1.96353 0.0091495 30 4 1 -2.93029e-10 
1.44031 -0.673293 0.0037245 0.0025 0.546472 0.429202 1.96351 0.0091496 31 4 1 1.16299e-09 
1.44488 -0.67331 0.00401209 0.0025 0.546465 0.429192 1.96349 0.00914972 32 4 1 -1.69239e-09 
1.44946 -0.67333 0.00433299 0.0025 0.546457 0.429181 1.96347 0.00914985 33 4 1 -1.78805e-09 
1.45403 -0.673351 0.00473462 0.0025 0.546449 0.429169 1.96344 0.00914999 34 4 1 9.28834e-10 
1.45861 -0.673375 0.00523968 0.0025 0.546439 0.429156 1.96342 0.00915016 35 4 1 -1.67312e-09 
1.46318 -0.6734 0.00583573 0.0025 0.546427 0.429141 1.9634 0.00915035 36 4 1 -2.59441e-09 
1.46776 -0.673428 0.00649363 0.0025 0.546415 0.429125 1.96337 0.00915056 37 4 1 -4.86545e-10 
1.47233 -0.673459 0.00719882 0.0025 0.5464 0.429107 1.96334 0.00915081 38 4 1 -1.9934e-09 
1.47691 -0.673493 0.00796721 0.0025 0.546383 0.429087 1.96331 0.00915109 39 4 1 -3.03494e-09 
1.48148 -0.673531 0.008832 0.0025 0.546365 0.429064 1.96327 0.0091514 40 4 1 -1.88649e-09 
1.48606 -0.673574 0.00981913 0.0025 0.546344 0.42904 1.96323 0.00915175 41 4 1 -2.52308e-09 
1.49064 -0.673622 0.0109451 0.0025 0.54632 0.429012 1.96319 0.00915215 42 4 1 -4.01968e-09 
1.49521 -0.673675 0.012242 0.0025 0.546293 0.428981 1.96315 0.0091526 43 4 1 -3.92606e-09 
1.49979 -0.673736 0.013768 0.0025 0.546263 0.428946 1.9631 0.0091531 44 4 1 -3.60042e-09 
-0.495634 -0.673803 0.0155612 0.0025 0.546228 0.428907 1.96304 0.00915368 45 4 1 -5.61888e-09 
-0.491057 -0.673879 0.0175644 0.0025 0.54619 0.428863 1.96298 0.00915433 46 4 1 -6.44733e-09 
-0.48648 -0.673964 0.0195956 0.0025 0.546146 0.428814 1.96291 0.00915506 47 4 1 -5.17075e-09 
-0.481902 -0.67406 0.021478 0.0025 0.546097 0.428759 1.96283 0.00915589 48 4 1 -5.1906e-09 
-0.477324 -0.674171 0.0233433 0.0025 0.546043 0.428699 1.96275 0.00915679 49 4 1 -6.11418e-09 
-0.472746 -0.674296 0.0257087 0.0025 0.545984 0.428633 1.96266 0.00915777 50 4 1 -6.70499e-09 
-0.468166 -0.674435 0.0288791 0.0025 0.54592 0.428561 1.96257 0.00915885 51 4 1 -6.81267e-09 
-0.463587 -0.674584 0.032307 0.0025 0.545849 0.428482 1.96246 0.00916004 52 4 1 -7.0953e-09 
-0.459006 -0.674741 0.0350678 0.0025 0.545772 0.428397 1.96234 0.00916133 53 4 1 -5.36209e-09 
-0.454425 -0.674904 0.0368361 0.0025 0.545691 0.428307 1.96222 0.0091627 54 4 1 -9.33977e-10 
-0.449844 -0.675068 0.0375953 0.0025 0.545609 0.428215 1.9621 0.00916408 55 4 1 4.07497e-09 
-0.445261 -0.675228 0.0366223 0.0025 0.545528 0.428127 1.96198 0.00916542 56 4 1 8.91087e-09 
-0.440678 -0.675374 0.0333097 0.0025 0.545456 0.428046 1.96187 0.00916665 57 4 1 1.50491e-08 
-0.436095 -0.675498 0.028243 0.0025 0.545396 0.42798 1.96178 0.00916765 58 4 1 2.54997e-08 
-0.431511 -0.675583 0.0175794 0.0025 0.545357 0.427936 1.96172 0.00916831 59 4 1 2.22554e-08 
-0.426926 -0.675623 0.012011 0.0025 0.545336 0.427913 1.96169 0.00916867 60 5 1 4.95022e-08 
-0.422342 -0.675672 -0.00798245 0.0025 0.545358 0.427942 1.96171 0.00916829 61 4 1 1.75105e-07 
-0.417758 -0.675358 -0.118022 0.0025 0.545523 0.428125 1.96195 0.00916552 62 4 1 2.33692e-07 
-0.413176 -0.674695 -0.172561 0.0025 0.545877 0.428516 1.96245 0.00915957 63 4 1 3.0854e-07 
-0.408599 -0.673685 -0.296397 0.0025 0.546477 0.429187 1.96331 0.00914952 64 4 1 6.97614e-07 
-0.404027 -0.671679 -0.635736 0.0025 0.547598 0.430433 1.96492 0.00913078 65 4 1 1.13604e-06 
-0.399468 -0.668027 -1.03798 0.0025 0.5495 0.432526 1.96764 0.00909918 66 4 1 1.26695e-06 
-0.394928 -0.662851 -1.34234 0.0025 0.55216 0.435452 1.97145 0.00905535 67 4 1 1.18826e-06 
-0.390412 -0.656669 -1.53801 0.0025 0.555393 0.439021 1.97605 0.00900263 68 4 1 1.21623e-06 
-0.385925 -0.649674 -1.74541 0.0025 0.559102 0.443132 1.98132 0.00894291 69 4 1 1.43128e-06 
-0.381469 -0.641769 -1.99225 0.0025 0.563316 0.447817 1.98728 0.00887601 70 4 1 1.67411e-06 
-0.377049 -0.632902 -2.24743 0.0025 0.568068 0.453116 1.99397 0.00880176 71 4 1 1.89522e-06 
-0.372667 -0.623043 -2.5112 0.0025 0.57336 0.459032 2.00137 0.00872052 72 4 1 1.96854e-06 
-0.368328 -0.612414 -2.68843 0.0025 0.579103 0.465475 2.00937 0.00863404 73 4 1 1.88983e-06 
-0.364033 -0.601312 -2.79869 0.0025 0.58514 0.472274 2.01772 0.00854497 74 4 1 1.73416e-06 
-0.359783 -0.590087 -2.8251 0.0025 0.591313 0.479258 2.02621 0.00845575 75 4 1 1.58024e-06 
-0.355577 -0.578933 -2.82878 0.0025 0.597509 0.486299 2.03467 0.00836808 76 4 1 1.46321e-06 
-0.351415 -0.567967 -2.80671 0.0025 0.603666 0.493326 2.04303 0.00828273 77 4 1 1.34665e-06 
-0.347294 -0.557244 -2.77001 0.0025 0.609739 0.500285 2.05122 0.00820024 78 4 1 1.23105e-06 
-0.343214 -0.546828 -2.71338 0.0025 0.615695 0.50714 2.05921 0.0081209 79 4 1 1.16993e-06 
-0.339173 -0.536667 -2.68422 0.0025 0.621538 0.513891 2.067 0.00804456 80 4 1 1.1192e-06 
-0.335169 -0.526767 -2.64002 0.0025 0.627279 0.520547 2.07462 0.00797093 81 4 1 1.0565e-06 
-0.331202 -0.517119 -2.60173 0.0025 0.632916 0.527108 2.08205 0.00789994 82 4 1 1.03349e-06 
-0.327269 -0.507692 -2.57775 0.0025 0.63847 0.533596 2.08934 0.00783122 83 4 1 1.04761e-06 
-0.323371 -0.498412 -2.57966 0.0025 0.643979 0.540053 2.09653 0.00776423 84 4 1 1.04436e-06 
-0.319505 -0.489241 -2.56888 0.0025 0.649464 0.546505 2.10365 0.00769866 85 4 1 1.08777e-06 
-0.315672 -0.480101 -2.61046 0.0025 0.654966 0.553 2.11076 0.00763399 86 4 1 1.167e-06 
-0.311871 -0.470887 -2.66272 0.0025 0.660542 0.559604 2.11793 0.00756954 87 4 1 1.22326e-06 
-0.308102 -0.461562 -2.73147 0.0025 0.666221 0.566352 2.12519 0.00750501 88 4 1 1.26735e-06 
-0.304366 -0.452079 -2.79726 0.0025 0.672017 0.573261 2.13257 0.00744029 89 4 1 1.27822e-06 
-0.300662 -0.442531 -2.85112 0.0025 0.677919 0.580321 2.14004 0.00737551 90 4 1 1.31666e-06 
-0.29699 -0.432832 -2.93141 0.0025 0.683934 0.587542 2.14761 0.00731065 91 4 1 1.31346e-06 
-0.293351 -0.423045 -2.97032 0.0025 0.690044 0.5949 2.15527 0.00724592 92 4 1 1.2449e-06 
-0.289744 -0.413305 -2.98137 0.0025 0.696193 0.602334 2.16293 0.00718192 93 4 1 1.24264e-06 
-0.286169 -0.40356 -3.02464 0.0025 0.702376 0.609836 2.17059 0.0071187 94 4 1 1.20962e-06 
-0.282625 -0.393842 -3.01971 0.0025 0.708576 0.617385 2.17823 0.0070564 95 4 1 1.17178e-06 
-0.279112 -0.384222 -3.03817 0.0025 0.714775 0.624959 2.18583 0.00699521 96 4 1 1.18193e-06 
-0.27563 -0.374625 -3.06053 0.0025 0.720987 0.632575 2.19341 0.00693494 97 4 1 1.12273e-06 
-0.272177 -0.365136 -3.03956 0.0025 0.727184 0.640199 2.20093 0.00687584 98 4 1 1.11026e-06 
-0.268754 -0.355731 -3.0666 0.0025 0.733366 0.647833 2.2084 0.00681787 99 4 1 1.09704e-06 
-0.265359 -0.346378 -3.05615 0.0025 0.739542 0.655482 2.21582 0.00676094 100 4 1 1.04804e-06 
-0.261993 -0.33717 -3.0502 0.0025 0.745688 0.663122 2.22317 0.00670521 101 4 1 1.06856e-06 
-0.258654 -0.328008 -3.07952 0.0025 0.751833 0.670786 2.23048 0.00665041 102 4 1 1.05746e-06 
-0.255342 -0.318882 -3.07986 0.0025 0.757982 0.678476 2.23776 0.00659646 103 4 1 9.93897e-07 
-0.252057 -0.309882 -3.05881 0.0025 0.764099 0.686155 2.24496 0.00654365 104 4 1 1.01006e-06 
-0.248798 -0.30098 -3.09352 0.0025 0.770208 0.693848 2.25212 0.00649175 105 4 1 1.00986e-06 
-0.245565 -0.292044 -3.093 0.0025 0.776322 0.701568 2.25926 0.00644063 106 4 1 9.25582e-07 
-0.242358 -0.283298 -3.05425 0.0025 0.782392 0.70926 2.2663 0.00639066 107 4 1 9.4183e-07 
-0.239175 -0.274634 -3.08799 0.0025 0.788441 0.716952 2.2733 0.00634163 108 4 1 9.91208e-07 
-0.236016 -0.265935 -3.12117 0.0025 0.79452 0.7247 2.28029 0.00629311 109 4 1 9.22334e-07 
-0.232881 -0.257305 -3.08976 0.0025 0.800585 0.732454 2.28724 0.00624544 110 4 1 8.54877e-07 
-0.22977 -0.248888 -3.0648 0.0025 0.806596 0.740169 2.29409 0.00619889 111 4 1 9.47156e-07 
-0.226682 -0.240423 -3.15316 0.0025 0.812633 0.747937 2.30094 0.00615284 112 4 1 9.12422e-07 
-0.223617 -0.23196 -3.10812 0.0025 0.818682 0.755737 2.30778 0.00610737 113 4 1 7.8314e-07 
-0.220575 -0.22373 -3.05966 0.0025 0.824653 0.763467 2.3145 0.00606316 114 4 1 8.51624e-07 
-0.217554 -0.215547 -3.11462 0.0025 0.830611 0.771204 2.32117 0.00601967 115 4 1 9.1015e-07 
-0.214555 -0.207308 -3.15064 0.0025 0.836615 0.779016 2.32787 0.00597647 116 4 1 8.30275e-07 
-0.211578 -0.199114 -3.11751 0.0025 0.842605 0.786833 2.33452 0.00593398 117 4 1 7.38901e-07 
-0.208621 -0.19114 -3.06305 0.0025 0.848524 0.794585 2.34106 0.00589259 118 4 1 8.22377e-07 
-0.205685 -0.1832 -3.14621 0.0025 0.854447 0.802365 2.34759 0.00585174 119 4 1 9.00826e-07 
-0.202769 -0.175122 -3.19862 0.0025 0.860443 0.810253 2.35417 0.00581096 120 4 1 7.24923e-07 
-0.199874 -0.167203 -3.08128 0.0025 0.866379 0.818084 2.36065 0.00577115 121 4 1 6.19738e-07 
-0.196998 -0.159596 -3.02629 0.0025 0.872187 0.82578 2.36696 0.00573272 122 4 1 8.41205e-07 
-0.194141 -0.151894 -3.19814 0.0025 0.878057 0.833575 2.37332 0.00569439 123 4 1 9.02202e-07 
-0.191304 -0.143964 -3.22461 0.0025 0.884041 0.841529 2.37978 0.00565585 124 4 1 6.10236e-07 
-0.188485 -0.136293 -3.04039 0.0025 0.889909 0.849356 2.38608 0.00561855 125 4 1 5.64108e-07 
-0.185685 -0.128995 -3.03035 0.0025 0.895638 0.857034 2.39221 0.00558261 126 4 1 8.90672e-07 
-0.182903 -0.121425 -3.27396 0.0025 0.901505 0.864904 2.39847 0.00554628 127 4 1 8.64982e-07 
-0.180139 -0.113622 -3.2372 0.0025 0.907488 0.872936 2.40483 0.00550972 128 4 1 4.67507e-07 
-0.177393 -0.106257 -2.98424 0.0025 0.913265 0.880725 2.41094 0.00547486 129 4 1 4.75354e-07 
-0.174664 -0.0993025 -2.98941 0.0025 0.918865 0.88831 2.41683 0.0054415 130 4 1 8.7589e-07 
-0.171951 -0.0919941 -3.27493 0.0025 0.924637 0.896134 2.4229 0.00540753 131 4 1 8.58171e-07 
-0.169256 -0.0844235 -3.25063 0.0025 0.930565 0.904171 2.42911 0.00537308 132 4 1 4.35457e-07 
-0.166578 -0.0772586 -2.98454 0.0025 0.936295 0.911972 2.43507 0.0053402 133 4 1 4.42834e-07 
-0.163916 -0.0704865 -3.00064 0.0025 0.941846 0.919567 2.44083 0.00530872 134 4 1 8.21463e-07 
-0.161269 -0.0634058 -3.26264 0.0025 0.947556 0.927382 2.44674 0.00527674 135 4 1 7.76714e-07 
-0.158639 -0.0560749 -3.22056 0.0025 0.953388 0.935366 2.45276 0.00524446 136 4 1 3.47123e-07 
-0.156025 -0.0492303 -2.91556 0.0025 0.958986 0.943062 2.4585 0.00521384 137 4 1 4.0285e-07 
-0.153425 -0.0427667 -2.98309 0.0025 0.964411 0.95056 2.46405 0.00518451 138 4 1 8.83964e-07 
-0.15084 -0.035801 -3.35944 0.0025 0.970068 0.958368 2.46984 0.00515428 139 4 1 5.07948e-07 
-0.148271 -0.028769 -2.9477 0.0025 0.975658 0.966074 2.47553 0.00512475 140 4 1 -3.0156e-07 
-0.145716 -0.023157 -2.2382 0.0025 0.980557 0.972896 2.48045 0.00509914 141 4 1 6.97466e-07 
-0.143172 -0.0175746 -3.2024 0.0025 0.985634 0.980023 2.48557 0.00507287 142 4 1 2.18291e-06 
-0.140643 -0.00926755 -4.47541 0.0025 0.992041 0.988893 2.4921 0.00504011 143 4 1 -9.73601e-08 
-0.138132 -0.0014871 -2.4375 0.0025 0.997853 0.996893 2.49795 0.00501076 144 4 1 -2.52222e-06 
-0.135632 0.00113056 -0.300708 0.0025 1.00099 1.00138 2.50097 0.00499505 145 4 1 6.97758e-07 
-0.133137 0.0040998 -2.98158 0.0025 1.00442 1.00634 2.50437 0.00497801 146 4 1 3.73164e-06 
-0.130654 0.0130832 -5.12485 0.0025 1.01079 1.01515 2.51086 0.00494664 147 4 1 -5.88596e-07 
-0.12819 0.0205584 -1.77537 0.0025 1.01632 1.02278 2.51636 0.00491971 148 4 1 -3.42347e-06 
-0.125734 0.0215048 0.35238 0.0025 1.01818 1.02552 2.51809 0.00491073 149 4 1 -1.93338e-07 
-0.123279 0.0225386 -1.42226 0.0025 1.01941 1.02732 2.51932 0.00490479 150 4 1 6.24619e-07 
-0.120829 0.0254215 -0.941718 0.0025 1.02117 1.02972 2.5211 0.00489633 151 4 1 -1.25023e-06 
-0.118383 0.02586 0.136361 0.0025 1.02163 1.03037 2.52154 0.00489412 152 3 1 -1.08339e-06 
-0.115935 0.0249213 0.596178 0.0025 1.02077 1.02919 2.52068 0.00489825 153 4 1 -4.98714e-07 
-0.113485 0.0232431 0.897637 0.0025 1.01928 1.02709 2.5192 0.00490542 154 4 1 -2.54306e-07 
-0.11103 0.0211177 1.0789 0.0025 1.01743 1.02449 2.51737 0.00491433 155 4 1 -9.01281e-08 
-0.10857 0.0187472 1.17148 0.0025 1.01541 1.02164 2.51535 0.00492414 156 4 1 3.12515e-08 
-0.106106 0.0162888 1.19216 0.0025 1.01333 1.01872 2.51329 0.00493424 157 4 1 1.1761e-07 
-0.103636 0.0138642 1.15868 0.0025 1.0113 1.01586 2.51127 0.00494415 158 4 1 1.75008e-07 
-0.101161 0.0115644 1.08555 0.0025 1.00939 1.01318 2.50936 0.00495351 159 4 1 2.08447e-07 
-0.0986824 0.00945332 0.985522 0.0025 1.00764 1.01073 2.50763 0.00496207 160 4 1 2.22911e-07 
-0.0961994 0.00757179 0.869406 0.0025 1.0061 1.00856 2.50609 0.00496968 161 4 1 2.22809e-07 
-0.0937128 0.00594072 0.74634 0.0025 1.00477 1.0067 2.50476 0.00497626 162 4 1 2.11946e-07 
-0.0912231 0.00456423 0.623899 0.0025 1.00365 1.00513 2.50365 0.0049818 163 4 1 1.93619e-07 
-0.088731 0.00343286 0.508054 0.0025 1.00274 1.00385 2.50274 0.00498633 164 4 1 1.70705e-07 
-0.0862368 0.00252691 0.403113 0.0025 1.00201 1.00283 2.50201 0.00498996 165 4 1 1.45672e-07 
-0.083741 0.00182001 0.311711 0.0025 1.00145 1.00203 2.50144 0.00499278 166 4 1 1.20543e-07 
-0.081244 0.00128239 0.234951 0.0025 1.00102 1.00143 2.50101 0.00499492 167 4 1 9.68481e-08 
-0.0787461 0.000883767 0.172659 0.0025 1.0007 1.00098 2.5007 0.0049965 168 4 1 7.56176e-08 
-0.0762475 0.000595563 0.123727 0.0025 1.00047 1.00066 2.50047 0.00499765 169 4 1 5.74154e-08 
-0.0737484 0.000392341 0.0864679 0.0025 1.00031 1.00044 2.50031 0.00499845 170 4 1 4.24154e-08 
-0.071249 0.000252575 0.0589347 0.0025 1.0002 1.00028 2.5002 0.004999 171 4 1 3.04971e-08 
-0.0687494 0.00015882 0.0391723 0.0025 1.00013 1.00018 2.50012 0.00499937 172 4 1 2.13464e-08 
-0.0662497 9.74889e-05 0.0253858 0.0025 1.00008 1.00011 2.50008 0.00499962 173 4 1 1.45463e-08 
-0.0637498 5.83737e-05 0.0160342 0.0025 1.00005 1.00006 2.50005 0.00499977 174 4 1 9.64975e-09 
-0.0612499 3.40636e-05 0.00986543 0.0025 1.00003 1.00004 2.50003 0.00499987 175 4 1 6.23048e-09 
-0.0587499 1.93496e-05 0.00590845 0.0025 1.00002 1.00002 2.50002 0.00499992 176 4 1 3.9138e-09 
-0.05625 1.06841e-05 0.00344103 0.0025 1.00001 1.00001 2.50001 0.00499996 177 4 1 2.39049e-09 
-0.05375 5.72404e-06 0.00194625 0.0025 1 1.00001 2.5 0.00499998 178 4 1 1.41847e-09 
-0.05125 2.96873e-06 0.00106727 0.0025 1 1 2.5 0.00499999 179 4 1 8.16784e-10 
-0.04875 1.48616e-06 0.000566213 0.0025 1 1 2.5 0.00499999 180 4 1 4.5571e-10 
-0.04625 7.15343e-07 0.000289788 0.0025 1 1 2.5 0.005 181 4 1 2.45867e-10 
-0.04375 3.29354e-07 0.000142542 0.0025 1 1 2.5 0.005 182 4 1 1.27938e-10 
-0.04125 1.44003e-07 6.70403e-05 0.0025 1 1 2.5 0.005 183 4 1 6.39816e-11 
-0.03875 5.91622e-08 2.9929e-05 0.0025 1 1 2.5 0.005 184 4 1 3.06038e-11 
-0.03625 2.24659e-08 1.25456e-05 0.0025 1 1 2.5 0.005 185 4 1 1.39052e-11 
-0.03375 7.66608e-09 4.85193e-06 0.0025 1 1 2.5 0.005 186 4 1 5.94094e-12 
-0.03125 2.22389e-09 1.67705e-06 0.0025 1 1 2.5 0.005 187 4 1 2.34839e-12 
-0.02875 4.74914e-10 4.83323e-07 0.0025 1 1 2.5 0.005 188 4 1 8.31959e-13 
-0.02625 3.24067e-11 9.97379e-08 0.0025 1 1 2.5 0.005 189 4 1 2.583e-13 
-0.02375 -1.00078e-11 -2.76561e-08 0.0025 1 1 2.5 0.005 190 5 1 5.01526e-14 
-0.02125 2.70385e-11 -9.58198e-09 0.0025 1 1 2.5 0.005 191 4 1 -1.46091e-14 
-0.01875 2.81089e-11 2.58285e-09 0.0025 1 1 2.5 0.005 192 3 1 -6.45777e-15 
-0.01625 1.92907e-11 4.92946e-09 0.0025 1 1 2.5 0.005 193 4 1 3.71259e-16 
-0.01375 1.08411e-11 3.75718e-09 0.0025 1 1 2.5 0.005 194 4 1 1.84102e-15 
-0.01125 5.2925e-12 2.24759e-09 0.0025 1 1 2.5 0.005 195 4 1 1.57669e-15 
-0.00875 2.26982e-12 1.1421e-09 0.0025 1 1 2.5 0.005 196 4 1 9.99378e-16 
-0.00625 8.46527e-13 5.06247e-10 0.0025 1 1 2.5 0.005 197 4 1 5.22604e-16 
-0.00375 2.66257e-13 1.93381e-10 0.0025 1 1 2.5 0.005 198 4 1 2.4265e-16 
-0.00125 5.82469e-14 4.69527e-11 0.0025 1 1 2.5 0.005 199 5 1 1.2399e-16 
0.00125 -5.10438e-14 -4.718e-11 0.0025 1 1 2.5 0.005 200 4 1 1.26121e-16 
0.00375 -2.58689e-13 -1.92699e-10 0.0025 1 1 2.5 0.005 201 4 1 2.4265e-16 
0.00625 -8.39537e-13 -5.0602e-10 0.0025 1 1 2.5 0.005 202 4 1 5.21894e-16 
0.00875 -2.26347e-12 -1.14079e-09 0.0025 1 1 2.5 0.005 203 4 1 9.96536e-16 
0.01125 -5.28614e-12 -2.24793e-09 0.0025 1 1 2.5 0.005 204 4 1 1.5838e-15 
0.01375 -1.08344e-11 -3.75604e-09 0.0025 1 1 2.5 0.005 205 4 1 1.82681e-15 
0.01625 -1.92807e-11 -4.93043e-09 0.0025 1 1 2.5 0.005 206 4 1 3.85825e-16 
0.01875 -2.81008e-11 -2.58228e-09 0.0025 1 1 2.5 0.005 207 3 1 -6.467e-15 
0.02125 -2.70317e-11 9.58215e-09 0.0025 1 1 2.5 0.005 208 4 1 -1.4612e-14 
0.02375 1.0016e-11 2.76577e-08 0.0025 1 1 2.5 0.005 209 5 1 5.01728e-14 
0.02625 -3.23969e-11 -9.97405e-08 0.0025 1 1 2.5 0.005 210 4 1 2.58265e-13 
0.02875 -4.74906e-10 -4.83324e-07 0.0025 1 1 2.5 0.005 211 4 1 8.32009e-13 
0.03125 -2.22389e-09 -1.67705e-06 0.0025 1 1 2.5 0.005 212 4 1 2.34837e-12 
0.03375 -7.66608e-09 -4.85193e-06 0.0025 1 1 2.5 0.005 213 4 1 5.94093e-12 
0.03625 -2.24659e-08 -1.25456e-05 0.0025 1 1 2.5 0.005 214 4 1 1.39052e-11 
0.03875 -5.91622e-08 -2.9929e-05 0.0025 1 1 2.5 0.005 215 4 1 3.06038e-11 
0.04125 -1.44003e-07 -6.70403e-05 0.0025 1 1 2.5 0.005 216 4 1 6.39816e-11 
0.04375 -3.29354e-07 -0.000142542 0.0025 1 1 2.5 0.005 217 4 1 1.27938e-10 
0.04625 -7.15343e-07 -0.000289788 0.0025 1 1 2.5 0.005 218 4 1 2.45867e-10 
0.04875 -1.48616e-06 -0.000566213 0.0025 1 1 2.5 0.00499999 219 4 1 4.5571e-10 
0.05125 -2.96873e-06 -0.00106727 0.0025 1 1 2.5 0.00499999 220 4 1 8.16784e-10 
