# Time [s]: 0.308507
# Columns: pos [m], vel [m/s], acc [m/s^2], mass [kg], dens [kg/m^3], pres [Pa], ene [J/kg], sml [m], id, neighbor, alpha, gradh, ...additional?
1.29457 -0.673098 0.000429876 0.0025 0.511049 0.432725 2.1525 0.00978379 0 4 1 -0.000134226 
1.29935 -0.6731 0.000457524 0.0025 0.536906 0.426187 1.95004 0.00931262 1 4 1 0.000179252 
1.30389 -0.673101 0.00048348 0.0025 0.548235 0.430856 1.9685 0.00912018 2 3 1 -1.90586e-05 
1.30847 -0.673103 0.000508563 0.0025 0.545969 0.429191 1.96464 0.00915802 3 5 1 3.48582e-06 
1.31305 -0.673105 0.000531689 0.0025 0.546367 0.429345 1.96457 0.00915136 4 4 1 -1.38728e-07 
1.31762 -0.673107 0.000553762 0.0025 0.546377 0.429314 1.96434 0.0091512 5 4 1 1.43677e-07 
1.3222 -0.673109 0.00057758 0.0025 0.546399 0.429312 1.96428 0.00915083 6 4 1 -3.56992e-09 
1.32677 -0.673111 0.000606014 0.0025 0.546411 0.429308 1.96422 0.00915062 7 4 1 8.16394e-09 
1.33135 -0.673114 0.000639751 0.0025 0.546424 0.429306 1.96416 0.00915041 8 4 1 4.68106e-09 
1.33593 -0.673116 0.000676933 0.0025 0.546435 0.429304 1.96411 0.00915022 9 4 1 5.38434e-09 
1.3405 -0.673119 0.00071532 0.0025 0.546445 0.429303 1.96407 0.00915005 10 4 1 -2.33626e-09 
1.34508 -0.673122 0.000755117 0.0025 0.546455 0.429301 1.96403 0.00914989 11 4 1 4.62521e-09 
1.34965 -0.673126 0.000799667 0.0025 0.546464 0.429299 1.96399 0.00914974 12 4 1 2.7335e-09 
1.35422 -0.673129 0.000853017 0.0025 0.546471 0.429296 1.96395 0.00914962 13 4 1 3.43266e-09 
1.3588 -0.673133 0.000916291 0.0025 0.546477 0.429294 1.96392 0.00914951 14 4 1 1.95863e-09 
1.36337 -0.673137 0.000986217 0.0025 0.546483 0.429292 1.96389 0.00914942 15 4 1 -1.75614e-09 
1.36795 -0.673142 0.00105759 0.0025 0.546488 0.429289 1.96385 0.00914934 16 4 1 4.72612e-09 
1.37252 -0.673147 0.00112811 0.0025 0.546492 0.429286 1.96383 0.00914927 17 4 1 1.30699e-09 
1.3771 -0.673152 0.00120168 0.0025 0.546495 0.429283 1.9638 0.00914921 18 4 1 -1.3769e-09 
1.38167 -0.673158 0.00128669 0.0025 0.546498 0.42928 1.96378 0.00914916 19 4 1 2.49022e-09 
1.38625 -0.673164 0.0013894 0.0025 0.5465 0.429276 1.96375 0.00914912 20 4 1 9.21802e-10 
1.39082 -0.67317 0.00150746 0.0025 0.546502 0.429273 1.96373 0.0091491 21 4 1 9.12627e-10 
1.3954 -0.673178 0.00162996 0.0025 0.546503 0.429269 1.96371 0.00914909 22 4 1 7.69908e-10 
1.39997 -0.673185 0.00174664 0.0025 0.546503 0.429264 1.96369 0.00914908 23 3 1 -4.49517e-10 
1.40455 -0.673193 0.00185986 0.0025 0.546503 0.429259 1.96367 0.00914909 24 4 1 1.19987e-09 
1.40912 -0.673202 0.00198783 0.0025 0.546502 0.429254 1.96365 0.0091491 25 4 1 4.17162e-10 
1.41369 -0.673212 0.00215269 0.0025 0.5465 0.429249 1.96363 0.00914913 26 4 1 -7.67636e-10 
1.41827 -0.673223 0.00236138 0.0025 0.546498 0.429243 1.96361 0.00914916 27 4 1 7.17276e-10 
1.42284 -0.673234 0.00259724 0.0025 0.546495 0.429237 1.96359 0.00914921 28 4 1 2.95623e-10 
1.42742 -0.673246 0.00283256 0.0025 0.546492 0.42923 1.96357 0.00914927 29 4 1 -1.35e-09 
1.43199 -0.673259 0.00305308 0.0025 0.546488 0.429222 1.96355 0.00914934 30 4 1 -7.17071e-11 
1.43657 -0.673274 0.00327328 0.0025 0.546483 0.429214 1.96353 0.00914942 31 4 1 1.35378e-09 
1.44114 -0.67329 0.00352888 0.0025 0.546477 0.429205 1.96351 0.00914952 32 4 1 -1.58815e-09 
1.44572 -0.673307 0.00385262 0.0025 0.54647 0.429195 1.96349 0.00914963 33 4 1 -1.74851e-09 
1.45029 -0.673326 0.00425328 0.0025 0.546463 0.429184 1.96346 0.00914975 34 4 1 9.87585e-10 
1.45487 -0.673347 0.00471447 0.0025 0.546454 0.429172 1.96344 0.0091499 35 4 1 -1.51328e-09 
1.45944 -0.673369 0.00521333 0.0025 0.546444 0.429159 1.96342 0.00915007 36 4 1 -2.31186e-09 
1.46402 -0.673394 0.00574254 0.0025 0.546433 0.429145 1.96339 0.00915025 37 4 1 -1.23619e-10 
1.46859 -0.673421 0.00631619 0.0025 0.54642 0.429129 1.96337 0.00915047 38 4 1 -1.6047e-09 
1.47317 -0.673452 0.00695714 0.0025 0.546406 0.429112 1.96334 0.00915071 39 4 1 -2.63483e-09 
1.47774 -0.673485 0.00768429 0.0025 0.54639 0.429092 1.96331 0.00915098 40 4 1 -1.45481e-09 
1.48232 -0.673523 0.00851767 0.0025 0.546372 0.429071 1.96327 0.00915128 41 4 1 -2.05757e-09 
1.48689 -0.673565 0.00949224 0.0025 0.546351 0.429047 1.96324 0.00915162 42 4 1 -3.5491e-09 
1.49147 -0.673612 0.0106475 0.0025 0.546328 0.42902 1.9632 0.00915201 43 4 1 -3.43065e-09 
1.49605 -0.673664 0.0119806 0.0025 0.546302 0.42899 1.96315 0.00915244 44 4 1 -2.91929e-09 
-0.499377 -0.673723 0.0134043 0.0025 0.546273 0.428956 1.9631 0.00915294 45 4 1 -4.50476e-09 
-0.494801 -0.673789 0.0147865 0.0025 0.546239 0.428918 1.96305 0.00915349 46 4 1 -4.85827e-09 
-0.490224 -0.673864 0.0161171 0.0025 0.546203 0.428877 1.96299 0.00915411 47 4 1 -3.63149e-09 
-0.485646 -0.673952 0.0176711 0.0025 0.546162 0.428831 1.96293 0.00915479 48 4 1 -4.65938e-09 
-0.481069 -0.674051 0.0198689 0.0025 0.546117 0.42878 1.96286 0.00915555 49 4 1 -7.0033e-09 
-0.476491 -0.674162 0.0228137 0.0025 0.546067 0.428723 1.96278 0.00915639 50 4 1 -8.137e-09 
-0.471912 -0.674283 0.0261001 0.0025 0.546009 0.428659 1.96269 0.00915735 51 4 1 -7.67928e-09 
-0.467334 -0.674413 0.0292731 0.0025 0.545945 0.428587 1.9626 0.00915844 52 4 1 -7.79479e-09 
-0.462754 -0.674554 0.0322275 0.0025 0.545873 0.428508 1.96249 0.00915964 53 4 1 -7.29382e-09 
-0.458174 -0.674704 0.0348667 0.0025 0.545796 0.428422 1.96237 0.00916093 54 4 1 -4.47027e-09 
-0.453593 -0.674861 0.0367696 0.0025 0.545715 0.428332 1.96225 0.00916229 55 4 1 -7.40792e-10 
-0.449012 -0.675021 0.0375585 0.0025 0.545632 0.42824 1.96213 0.00916368 56 4 1 2.51791e-09 
-0.444429 -0.675177 0.036763 0.0025 0.545551 0.428151 1.96201 0.00916504 57 4 1 7.89522e-09 
-0.439847 -0.675324 0.0333605 0.0025 0.545477 0.428069 1.9619 0.00916628 58 4 1 1.60098e-08 
-0.435263 -0.675454 0.0281445 0.0025 0.545416 0.428001 1.96181 0.00916732 59 4 1 2.29106e-08 
-0.430679 -0.675551 0.0206102 0.0025 0.545373 0.427953 1.96174 0.00916804 60 4 1 2.35898e-08 
-0.426095 -0.675594 0.00877558 0.0025 0.54535 0.427927 1.9617 0.00916843 61 5 1 2.77008e-08 
-0.421511 -0.675647 0.0122589 0.0025 0.545352 0.427933 1.9617 0.0091684 62 4 1 1.39081e-07 
-0.416927 -0.675467 -0.0909631 0.0025 0.545468 0.428064 1.96187 0.00916644 63 4 1 2.40082e-07 
-0.412344 -0.674864 -0.168592 0.0025 0.545778 0.428404 1.96231 0.00916124 64 4 1 2.65355e-07 
-0.407765 -0.673967 -0.246544 0.0025 0.546301 0.428988 1.96306 0.00915246 65 4 1 5.42818e-07 
-0.403192 -0.672334 -0.515901 0.0025 0.547237 0.430032 1.9644 0.0091368 66 4 1 1.00366e-06 
-0.398629 -0.669225 -0.912574 0.0025 0.548883 0.431847 1.96675 0.00910941 67 4 1 1.24897e-06 
-0.394082 -0.664484 -1.25813 0.0025 0.551314 0.43452 1.97023 0.00906924 68 4 1 1.20976e-06 
-0.389559 -0.658588 -1.47724 0.0025 0.554376 0.437894 1.9746 0.00901916 69 4 1 1.16521e-06 
-0.385063 -0.65189 -1.66361 0.0025 0.557916 0.441814 1.97963 0.00896192 70 4 1 1.31376e-06 
-0.380597 -0.644359 -1.89118 0.0025 0.561927 0.446269 1.98531 0.00889796 71 4 1 1.53371e-06 
-0.376165 -0.635939 -2.1255 0.0025 0.566439 0.451295 1.99167 0.00882707 72 4 1 1.76075e-06 
-0.37177 -0.626553 -2.38528 0.0025 0.571471 0.456916 1.99873 0.00874935 73 4 1 1.89012e-06 
-0.367416 -0.616334 -2.58432 0.0025 0.576974 0.463083 2.00641 0.00866589 74 4 1 1.87269e-06 
-0.363104 -0.605545 -2.72417 0.0025 0.582824 0.469661 2.01452 0.00857893 75 4 1 1.7485e-06 
-0.358836 -0.594524 -2.77595 0.0025 0.588866 0.476484 2.02285 0.0084909 76 4 1 1.58617e-06 
-0.354613 -0.583516 -2.78611 0.0025 0.594965 0.483404 2.0312 0.00840385 77 4 1 1.45132e-06 
-0.350432 -0.572646 -2.76622 0.0025 0.601041 0.490326 2.03947 0.0083189 78 4 1 1.34947e-06 
-0.346294 -0.561976 -2.74389 0.0025 0.607051 0.497201 2.0476 0.00823655 79 4 1 1.23792e-06 
-0.342196 -0.55159 -2.68945 0.0025 0.61296 0.503988 2.05555 0.00815714 80 4 1 1.15825e-06 
-0.338136 -0.541481 -2.65565 0.0025 0.618757 0.510674 2.0633 0.00808072 81 4 1 1.11611e-06 
-0.334115 -0.531622 -2.62062 0.0025 0.624456 0.51727 2.07088 0.00800696 82 4 1 1.05954e-06 
-0.330129 -0.522012 -2.58401 0.0025 0.630059 0.523778 2.07829 0.00793577 83 4 1 1.00459e-06 
-0.326179 -0.512628 -2.54311 0.0025 0.635565 0.530199 2.08553 0.00786702 84 4 1 1.0066e-06 
-0.322262 -0.503424 -2.54127 0.0025 0.641007 0.536566 2.09265 0.00780023 85 4 1 1.01137e-06 
-0.318378 -0.494327 -2.52816 0.0025 0.646414 0.542914 2.09969 0.00773498 86 4 1 1.02088e-06 
-0.314527 -0.485325 -2.54269 0.0025 0.651811 0.549272 2.10669 0.00767094 87 4 1 1.08792e-06 
-0.310707 -0.476302 -2.58792 0.0025 0.65725 0.555701 2.1137 0.00760746 88 4 1 1.14511e-06 
-0.306919 -0.467213 -2.63963 0.0025 0.662769 0.562247 2.12078 0.0075441 89 4 1 1.21077e-06 
-0.303163 -0.457974 -2.71954 0.0025 0.668401 0.568946 2.12797 0.00748054 90 4 1 1.23079e-06 
-0.299439 -0.448638 -2.76536 0.0025 0.674142 0.575798 2.13526 0.00741684 91 4 1 1.23709e-06 
-0.295746 -0.439213 -2.82802 0.0025 0.679979 0.582791 2.14264 0.00735317 92 4 1 1.28164e-06 
-0.292085 -0.429645 -2.90002 0.0025 0.685926 0.589937 2.15011 0.00728941 93 4 1 1.23882e-06 
-0.288457 -0.420023 -2.91363 0.0025 0.691942 0.597191 2.15763 0.00722604 94 4 1 1.19786e-06 
-0.284859 -0.410463 -2.94534 0.0025 0.69799 0.604512 2.16516 0.00716342 95 4 1 1.19986e-06 
-0.281293 -0.400882 -2.97178 0.0025 0.704074 0.611899 2.17269 0.00710153 96 4 1 1.147e-06 
-0.277757 -0.39137 -2.96495 0.0025 0.710162 0.619319 2.18018 0.00704065 97 4 1 1.13915e-06 
-0.274252 -0.381933 -2.996 0.0025 0.716254 0.626769 2.18764 0.00698077 98 4 1 1.12674e-06 
-0.270777 -0.372514 -2.99628 0.0025 0.722353 0.634253 2.19507 0.00692182 99 4 1 1.07517e-06 
-0.26733 -0.363232 -2.99166 0.0025 0.728433 0.64174 2.20244 0.00686405 100 4 1 1.07796e-06 
-0.263912 -0.353995 -3.01304 0.0025 0.734508 0.649244 2.20977 0.00680728 101 4 1 1.0486e-06 
-0.260523 -0.344837 -2.99996 0.0025 0.74057 0.656757 2.21705 0.00675156 102 4 1 1.01065e-06 
-0.257161 -0.33581 -2.99915 0.0025 0.746605 0.664263 2.22426 0.00669698 103 4 1 1.02607e-06 
-0.253826 -0.326823 -3.0209 0.0025 0.752637 0.671789 2.23143 0.00664331 104 4 1 1.02029e-06 
-0.250517 -0.317854 -3.0294 0.0025 0.758674 0.679342 2.23857 0.00659045 105 4 1 9.51739e-07 
-0.247235 -0.309044 -2.99588 0.0025 0.764677 0.68688 2.24564 0.00653871 106 4 1 9.7066e-07 
-0.243979 -0.300282 -3.04033 0.0025 0.77067 0.694431 2.25266 0.00648786 107 4 1 9.80884e-07 
-0.240747 -0.291523 -3.03857 0.0025 0.776676 0.702015 2.25967 0.00643769 108 4 1 8.98555e-07 
-0.237541 -0.282932 -3.00635 0.0025 0.782641 0.709576 2.26659 0.00638862 109 4 1 8.97227e-07 
-0.234358 -0.274431 -3.02162 0.0025 0.78858 0.717128 2.27346 0.00634051 110 4 1 9.63817e-07 
-0.2312 -0.265914 -3.07806 0.0025 0.794551 0.72474 2.28033 0.00629286 111 4 1 8.96616e-07 
-0.228066 -0.257414 -3.03197 0.0025 0.800514 0.732363 2.28716 0.00624598 112 4 1 8.12649e-07 
-0.224954 -0.249147 -3.00818 0.0025 0.806415 0.739936 2.29388 0.00620028 113 4 1 9.04692e-07 
-0.221865 -0.240848 -3.08357 0.0025 0.812335 0.747551 2.30061 0.0061551 114 4 1 8.9174e-07 
-0.218799 -0.232518 -3.06356 0.0025 0.818274 0.755211 2.30732 0.00611042 115 4 1 7.75763e-07 
-0.215755 -0.224398 -3.01502 0.0025 0.824153 0.762817 2.31393 0.00606684 116 4 1 7.93645e-07 
-0.212732 -0.216372 -3.03505 0.0025 0.829997 0.770405 2.32048 0.00602412 117 4 1 8.75265e-07 
-0.20973 -0.208317 -3.09713 0.0025 0.835881 0.778062 2.32705 0.00598171 118 4 1 8.4291e-07 
-0.20675 -0.200242 -3.08554 0.0025 0.841785 0.785762 2.33361 0.00593976 119 4 1 7.14721e-07 
-0.203791 -0.192356 -3.01035 0.0025 0.847618 0.793395 2.34006 0.00589889 120 4 1 7.45923e-07 
-0.200851 -0.184596 -3.05386 0.0025 0.853415 0.801007 2.34645 0.00585881 121 4 1 8.69361e-07 
-0.197932 -0.176714 -3.14058 0.0025 0.859283 0.808725 2.35289 0.00581881 122 4 1 7.74685e-07 
-0.195032 -0.168818 -3.07978 0.0025 0.86515 0.81646 2.35931 0.00577934 123 4 1 5.95952e-07 
-0.192152 -0.161271 -2.96592 0.0025 0.870888 0.824054 2.36555 0.00574127 124 4 1 7.04409e-07 
-0.189291 -0.15381 -3.0584 0.0025 0.876597 0.831636 2.37174 0.00570387 125 4 1 9.00905e-07 
-0.186448 -0.146094 -3.19545 0.0025 0.882444 0.839407 2.37806 0.00566608 126 4 1 7.32148e-07 
-0.183625 -0.138374 -3.08045 0.0025 0.888291 0.847194 2.38435 0.00562878 127 4 1 4.9193e-07 
-0.18082 -0.131117 -2.93246 0.0025 0.893954 0.854772 2.39041 0.00559313 128 4 1 6.97546e-07 
-0.178032 -0.123881 -3.09894 0.0025 0.899617 0.862371 2.39645 0.00555792 129 4 1 9.25161e-07 
-0.175262 -0.116291 -3.24765 0.0025 0.905469 0.870226 2.40268 0.005522 130 4 1 6.49502e-07 
-0.17251 -0.108751 -3.06523 0.0025 0.911282 0.878045 2.40884 0.00548678 131 4 1 3.71703e-07 
-0.169775 -0.101796 -2.88043 0.0025 0.916838 0.885558 2.4147 0.00545352 132 4 1 6.22809e-07 
-0.167056 -0.0948935 -3.05398 0.0025 0.922371 0.893062 2.42052 0.00542081 133 4 1 9.15637e-07 
-0.164354 -0.0875493 -3.2555 0.0025 0.928134 0.900876 2.42656 0.00538715 134 4 1 6.71994e-07 
-0.161669 -0.0801981 -3.09957 0.0025 0.933915 0.908728 2.4326 0.0053538 135 4 1 3.44129e-07 
-0.159 -0.0733765 -2.88533 0.0025 0.939444 0.916274 2.43834 0.0053223 136 4 1 5.45178e-07 
-0.156346 -0.0667008 -3.02962 0.0025 0.94491 0.92376 2.444 0.00529151 137 4 1 8.53286e-07 
-0.153708 -0.0596199 -3.24088 0.0025 0.950586 0.931531 2.44987 0.00525992 138 4 1 6.40975e-07 
-0.151086 -0.0524911 -3.09625 0.0025 0.956286 0.939345 2.45574 0.00522856 139 4 1 2.43581e-07 
-0.14848 -0.0459692 -2.79323 0.0025 0.961689 0.946788 2.46127 0.00519919 140 4 1 4.8417e-07 
-0.145887 -0.0396434 -3.01056 0.0025 0.967011 0.954153 2.4667 0.00517057 141 4 1 9.34494e-07 
-0.143309 -0.0326547 -3.34291 0.0025 0.97263 0.961908 2.47245 0.0051407 142 4 1 3.17128e-07 
-0.140747 -0.0258642 -2.74736 0.0025 0.978045 0.969379 2.47795 0.00511224 143 4 1 -4.05456e-07 
-0.138197 -0.0206882 -2.10562 0.0025 0.982704 0.975891 2.48261 0.005088 144 4 1 1.0036e-06 
-0.135658 -0.0149866 -3.45475 0.0025 0.987817 0.983069 2.48777 0.00506166 145 4 1 2.21852e-06 
-0.133135 -0.00637216 -4.42822 0.0025 0.994298 0.99202 2.49438 0.00502867 146 4 1 -7.5003e-07 
-0.13063 0.000677503 -1.84055 0.0025 0.999656 0.999407 2.49974 0.00500172 147 4 1 -2.52756e-06 
-0.128134 0.00241237 -0.235184 0.0025 1.00233 1.00329 2.50228 0.00498838 148 4 1 1.45622e-06 
-0.125641 0.00603435 -3.53178 0.0025 1.006 1.00856 2.50596 0.00497018 149 4 1 3.52387e-06 
-0.123163 0.0153489 -4.81708 0.0025 1.01247 1.01748 2.51254 0.00493842 150 4 1 -1.46565e-06 
-0.120703 0.0216203 -1.10241 0.0025 1.01733 1.02421 2.51734 0.00491482 151 4 1 -3.05166e-06 
-0.118248 0.022028 0.127028 0.0025 1.0188 1.02641 2.5187 0.00490772 152 4 1 7.50795e-08 
-0.115795 0.0234587 -1.28049 0.0025 1.01997 1.02808 2.51988 0.00490212 153 4 1 9.9688e-08 
-0.113346 0.0253372 -0.403018 0.0025 1.02118 1.02973 2.5211 0.00489631 154 3 1 -1.18121e-06 
-0.110899 0.0252193 0.240421 0.0025 1.02111 1.02965 2.52102 0.00489662 155 4 1 -7.59526e-07 
-0.10845 0.0241269 0.644334 0.0025 1.0201 1.02824 2.52001 0.00490148 156 4 1 -4.07851e-07 
-0.105997 0.0224052 0.905579 0.0025 1.01857 1.02609 2.5185 0.00490884 157 4 1 -2.17053e-07 
-0.103541 0.0202849 1.071 0.0025 1.01673 1.0235 2.51667 0.00491772 158 4 1 -6.98224e-08 
-0.10108 0.0179481 1.15079 0.0025 1.01474 1.0207 2.51469 0.00492739 159 4 1 4.23377e-08 
-0.0986135 0.0155433 1.16321 0.0025 1.01271 1.01784 2.51267 0.00493726 160 4 1 1.23509e-07 
-0.0961424 0.0131866 1.12363 0.0025 1.01074 1.01507 2.51071 0.00494689 161 4 1 1.76796e-07 
-0.0936666 0.0109643 1.04661 0.0025 1.00889 1.01248 2.50887 0.00495593 162 4 1 2.06787e-07 
-0.0911865 0.00893597 0.944829 0.0025 1.00722 1.01014 2.50721 0.00496415 163 4 1 2.18345e-07 
-0.0887024 0.00713811 0.829043 0.0025 1.00575 1.00807 2.50574 0.00497142 164 4 1 2.15974e-07 
-0.086215 0.00558752 0.708182 0.0025 1.00449 1.0063 2.50448 0.00497767 165 4 1 2.03594e-07 
-0.0837248 0.00428493 0.589425 0.0025 1.00343 1.00481 2.50342 0.00498291 166 4 1 1.84546e-07 
-0.0812321 0.00321847 0.478229 0.0025 1.00257 1.00361 2.50256 0.00498719 167 4 1 1.61644e-07 
-0.0787376 0.00236722 0.378354 0.0025 1.00189 1.00265 2.50188 0.00499059 168 4 1 1.37213e-07 
-0.0762415 0.00170457 0.291954 0.0025 1.00135 1.0019 2.50135 0.00499324 169 4 1 1.13082e-07 
-0.0737444 0.00120141 0.219771 0.0025 1.00095 1.00134 2.50095 0.00499524 170 4 1 9.05863e-08 
-0.0712463 0.000828647 0.161413 0.0025 1.00066 1.00092 2.50065 0.00499672 171 4 1 7.05925e-08 
-0.0687476 0.000559172 0.115685 0.0025 1.00044 1.00062 2.50044 0.00499779 172 4 1 5.35462e-08 
-0.0662485 0.000369052 0.0809121 0.0025 1.00029 1.00041 2.50029 0.00499854 173 4 1 3.95498e-08 
-0.0637491 0.000238142 0.055226 0.0025 1.00019 1.00026 2.50019 0.00499906 174 4 1 2.84525e-08 
-0.0612495 0.000150173 0.0367807 0.0025 1.00012 1.00017 2.50012 0.00499941 175 4 1 1.99396e-08 
-0.0587497 9.24922e-05 0.023897 0.0025 1.00007 1.0001 2.50007 0.00499964 176 4 1 1.36128e-08 
-0.0562498 5.55987e-05 0.015141 0.0025 1.00004 1.00006 2.50004 0.00499978 177 4 1 9.05249e-09 
-0.0537499 3.25901e-05 0.00935033 0.0025 1.00003 1.00004 2.50003 0.00499987 178 4 1 5.86249e-09 
-0.0512499 1.86077e-05 0.00562405 0.0025 1.00001 1.00002 2.50001 0.00499993 179 4 1 3.6959e-09 
-0.04875 1.03347e-05 0.00329164 0.0025 1.00001 1.00001 2.50001 0.00499996 180 4 1 2.26691e-09 
-0.04625 5.57396e-06 0.00187235 0.0025 1 1.00001 2.5 0.00499998 181 4 1 1.3517e-09 
-0.04375 2.91315e-06 0.00103346 0.0025 1 1 2.5 0.00499999 182 4 1 7.8269e-10 
-0.04125 1.47135e-06 0.000552411 0.0025 1 1 2.5 0.00499999 183 4 1 4.39498e-10 
-0.03875 7.15624e-07 0.000285203 0.0025 1 1 2.5 0.005 184 4 1 2.38879e-10 
-0.03625 3.33595e-07 0.000141733 0.0025 1 1 2.5 0.005 185 4 1 1.25372e-10 
-0.03375 1.48081e-07 6.74833e-05 0.0025 1 1 2.5 0.005 186 4 1 6.33323e-11 
-0.03125 6.20095e-08 3.05842e-05 0.0025 1 1 2.5 0.005 187 4 1 3.06588e-11 
-0.02875 2.41495e-08 1.30685e-05 0.0025 1 1 2.5 0.005 188 4 1 1.41361e-11 
-0.02625 8.54276e-09 5.18655e-06 0.0025 1 1 2.5 0.005 189 4 1 6.15283e-12 
-0.02375 2.62626e-09 1.86227e-06 0.0025 1 1 2.5 0.005 190 4 1 2.49311e-12 
-0.02125 6.33379e-10 5.75717e-07 0.0025 1 1 2.5 0.005 191 4 1 9.15364e-13 
-0.01875 8.14662e-11 1.31441e-07 0.0025 1 1 2.5 0.005 192 4 1 2.98716e-13 
-0.01625 -1.43297e-11 -2.22747e-09 0.0025 1 1 2.5 0.005 193 5 1 7.32271e-14 
-0.01375 1.59647e-11 -1.51197e-08 0.0025 1 1 2.5 0.005 194 4 1 -4.71765e-15 
-0.01125 2.35983e-11 8.93067e-10 0.0025 1 1 2.5 0.005 195 3 1 -8.42668e-15 
-0.00875 1.76491e-11 3.76616e-09 0.0025 1 1 2.5 0.005 196 4 1 -6.21014e-16 
-0.00625 1.03981e-11 3.281e-09 0.0025 1 1 2.5 0.005 197 4 1 1.42144e-15 
-0.00375 5.03515e-12 1.91949e-09 0.0025 1 1 2.5 0.005 198 4 1 1.61755e-15 
-0.00125 1.46053e-12 6.10385e-10 0.0025 1 1 2.5 0.005 199 4 1 1.44631e-15 
0.00125 -1.4521e-12 -6.10044e-10 0.0025 1 1 2.5 0.005 200 5 1 1.45022e-15 
0.00375 -5.02621e-12 -1.91926e-09 0.0025 1 1 2.5 0.005 201 4 1 1.61826e-15 
0.00625 -1.0389e-11 -3.28077e-09 0.0025 1 1 2.5 0.005 202 4 1 1.41966e-15 
0.00875 -1.76387e-11 -3.76502e-09 0.0025 1 1 2.5 0.005 203 4 1 -6.25278e-16 
0.01125 -2.35886e-11 -8.93351e-10 0.0025 1 1 2.5 0.005 204 3 1 -8.41851e-15 
0.01375 -1.59549e-11 1.51203e-08 0.0025 1 1 2.5 0.005 205 4 1 -4.7315e-15 
0.01625 1.43382e-11 2.22906e-09 0.0025 1 1 2.5 0.005 206 5 1 7.32452e-14 
0.01875 -8.14575e-11 -1.31442e-07 0.0025 1 1 2.5 0.005 207 4 1 2.98708e-13 
0.02125 -6.33372e-10 -5.75719e-07 0.0025 1 1 2.5 0.005 208 4 1 9.15364e-13 
0.02375 -2.62625e-09 -1.86227e-06 0.0025 1 1 2.5 0.005 209 4 1 2.49313e-12 
0.02625 -8.54276e-09 -5.18655e-06 0.0025 1 1 2.5 0.005 210 4 1 6.15279e-12 
0.02875 -2.41495e-08 -1.30685e-05 0.0025 1 1 2.5 0.005 211 4 1 1.41361e-11 
0.03125 -6.20095e-08 -3.05842e-05 0.0025 1 1 2.5 0.005 212 4 1 3.06588e-11 
0.03375 -1.48081e-07 -6.74833e-05 0.0025 1 1 2.5 0.005 213 4 1 6.33323e-11 
0.03625 -3.33595e-07 -0.000141733 0.0025 1 1 2.5 0.005 214 4 1 1.25372e-10 
0.03875 -7.15624e-07 -0.000285203 0.0025 1 1 2.5 0.005 215 4 1 2.38879e-10 
0.04125 -1.47135e-06 -0.000552411 0.0025 1 1 2.5 0.00499999 216 4 1 4.39498e-10 
0.04375 -2.91315e-06 -0.00103346 0.0025 1 1 2.5 0.00499999 217 4 1 7.8269e-10 
0.04625 -5.57396e-06 -0.00187235 0.0025 1 1.00001 2.5 0.00499998 218 4 1 1.3517e-09 
