# Time [s]: 0.310359
# Columns: pos [m], vel [m/s], acc [m/s^2], mass [kg], dens [kg/m^3], pres [Pa], ene [J/kg], sml [m], id, neighbor, alpha, gradh, ...additional?
1.29332 -0.673098 0.000420377 0.0025 0.51105 0.432725 2.1525 0.00978379 0 4 1 -0.000134226 
1.29811 -0.673099 0.000446662 0.0025 0.536906 0.426188 1.95004 0.00931261 1 4 1 0.000179252 
1.30264 -0.6731 0.000471019 0.0025 0.548235 0.430857 1.9685 0.00912017 2 3 1 -1.90586e-05 
1.30723 -0.673102 0.000494094 0.0025 0.54597 0.429191 1.96464 0.00915802 3 5 1 3.48582e-06 
1.3118 -0.673104 0.00051544 0.0025 0.546367 0.429346 1.96457 0.00915136 4 4 1 -1.38724e-07 
1.31638 -0.673106 0.00053674 0.0025 0.546377 0.429315 1.96434 0.00915119 5 4 1 1.43679e-07 
1.32095 -0.673108 0.000560804 0.0025 0.546399 0.429313 1.96428 0.00915082 6 4 1 -3.5695e-09 
1.32553 -0.67311 0.000589519 0.0025 0.546411 0.429309 1.96422 0.00915061 7 4 1 8.16465e-09 
1.3301 -0.673112 0.000622395 0.0025 0.546424 0.429307 1.96416 0.0091504 8 4 1 4.6843e-09 
1.33468 -0.673115 0.000657317 0.0025 0.546436 0.429305 1.96411 0.00915021 9 4 1 5.39036e-09 
1.33925 -0.673118 0.000693072 0.0025 0.546446 0.429303 1.96407 0.00915004 10 4 1 -2.32971e-09 
1.34383 -0.673121 0.000731292 0.0025 0.546456 0.429301 1.96403 0.00914988 11 4 1 4.62949e-09 
1.3484 -0.673124 0.000775756 0.0025 0.546464 0.4293 1.96399 0.00914973 12 4 1 2.73495e-09 
1.35298 -0.673128 0.000829339 0.0025 0.546472 0.429297 1.96395 0.0091496 13 4 1 3.43396e-09 
1.35755 -0.673132 0.000891245 0.0025 0.546478 0.429295 1.96392 0.0091495 14 4 1 1.9637e-09 
1.36213 -0.673136 0.000957242 0.0025 0.546484 0.429293 1.96389 0.00914941 15 4 1 -1.7457e-09 
1.3667 -0.67314 0.00102325 0.0025 0.546489 0.42929 1.96386 0.00914932 16 4 1 4.73915e-09 
1.37128 -0.673145 0.00108961 0.0025 0.546493 0.429287 1.96383 0.00914925 17 4 1 1.31707e-09 
1.37585 -0.67315 0.00116225 0.0025 0.546496 0.429284 1.9638 0.00914919 18 4 1 -1.37336e-09 
1.38043 -0.673155 0.00124871 0.0025 0.546499 0.429281 1.96378 0.00914914 19 4 1 2.48982e-09 
1.385 -0.673161 0.00135152 0.0025 0.546502 0.429278 1.96375 0.0091491 20 4 1 9.25801e-10 
1.38958 -0.673168 0.00146432 0.0025 0.546503 0.429274 1.96373 0.00914908 21 4 1 9.28694e-10 
1.39415 -0.673175 0.00157601 0.0025 0.546504 0.42927 1.96371 0.00914906 22 4 1 7.96996e-10 
1.39872 -0.673182 0.00168145 0.0025 0.546505 0.429266 1.96369 0.00914905 23 3 1 -4.23053e-10 
1.4033 -0.67319 0.00178991 0.0025 0.546504 0.429262 1.96367 0.00914906 24 4 1 1.21205e-09 
1.40787 -0.673199 0.0019217 0.0025 0.546504 0.429257 1.96365 0.00914907 25 4 1 4.12819e-10 
1.41245 -0.673208 0.00209262 0.0025 0.546502 0.429251 1.96363 0.00914909 26 4 1 -7.73694e-10 
1.41702 -0.673218 0.00229904 0.0025 0.546501 0.429246 1.96361 0.00914912 27 4 1 7.31333e-10 
1.4216 -0.673229 0.00251864 0.0025 0.546498 0.429239 1.96359 0.00914917 28 4 1 3.39929e-10 
1.42617 -0.673241 0.00272867 0.0025 0.546494 0.429233 1.96357 0.00914922 29 4 1 -1.28737e-09 
1.43075 -0.673254 0.00292701 0.0025 0.546491 0.429225 1.96355 0.00914929 30 4 1 -1.63034e-11 
1.43532 -0.673268 0.00313755 0.0025 0.546486 0.429217 1.96353 0.00914937 31 4 1 1.38343e-09 
1.4399 -0.673283 0.00339491 0.0025 0.54648 0.429209 1.96351 0.00914946 32 4 1 -1.58051e-09 
1.44447 -0.6733 0.00372108 0.0025 0.546474 0.429199 1.96349 0.00914957 33 4 1 -1.73938e-09 
1.44905 -0.673318 0.00411285 0.0025 0.546467 0.429189 1.96347 0.00914968 34 4 1 1.02345e-09 
1.45362 -0.673338 0.00454959 0.0025 0.546459 0.429178 1.96345 0.00914982 35 4 1 -1.44187e-09 
1.4582 -0.67336 0.00501391 0.0025 0.546449 0.429165 1.96343 0.00914998 36 4 1 -2.21546e-09 
1.46277 -0.673384 0.00550698 0.0025 0.546439 0.429151 1.9634 0.00915016 37 4 1 -1.8452e-11 
1.46735 -0.67341 0.00604597 0.0025 0.546426 0.429136 1.96338 0.00915036 38 4 1 -1.49722e-09 
1.47192 -0.673439 0.00665073 0.0025 0.546413 0.429119 1.96335 0.00915059 39 4 1 -2.52138e-09 
1.4765 -0.673472 0.00733864 0.0025 0.546397 0.429101 1.96332 0.00915085 40 4 1 -1.33485e-09 
1.48107 -0.673508 0.00813437 0.0025 0.54638 0.42908 1.96329 0.00915114 41 4 1 -1.93764e-09 
1.48565 -0.673548 0.00907415 0.0025 0.546361 0.429057 1.96325 0.00915146 42 4 1 -3.42097e-09 
1.49022 -0.673593 0.0101791 0.0025 0.546339 0.429032 1.96321 0.00915183 43 4 1 -3.24432e-09 
1.4948 -0.673642 0.0114088 0.0025 0.546314 0.429003 1.96317 0.00915224 44 4 1 -2.59848e-09 
1.49937 -0.673698 0.0126533 0.0025 0.546286 0.428971 1.96312 0.00915271 45 4 1 -4.03219e-09 
-0.496049 -0.673762 0.0138289 0.0025 0.546255 0.428935 1.96307 0.00915324 46 4 1 -4.37685e-09 
-0.491472 -0.673836 0.0150507 0.0025 0.54622 0.428896 1.96302 0.00915381 47 4 1 -3.40365e-09 
-0.486895 -0.67392 0.0166744 0.0025 0.546182 0.428853 1.96296 0.00915445 48 4 1 -4.79999e-09 
-0.482317 -0.674015 0.0190111 0.0025 0.54614 0.428805 1.96289 0.00915517 49 4 1 -7.27142e-09 
-0.47774 -0.674121 0.0219611 0.0025 0.546091 0.428751 1.96282 0.00915598 50 4 1 -8.19582e-09 
-0.473161 -0.674235 0.0251095 0.0025 0.546036 0.428689 1.96273 0.0091569 51 4 1 -7.56834e-09 
-0.468583 -0.67436 0.0281987 0.0025 0.545974 0.42862 1.96264 0.00915795 52 4 1 -7.8665e-09 
-0.464003 -0.674495 0.03121 0.0025 0.545905 0.428543 1.96254 0.00915911 53 4 1 -7.71846e-09 
-0.459424 -0.67464 0.0339744 0.0025 0.54583 0.428459 1.96242 0.00916037 54 4 1 -5.22652e-09 
-0.454843 -0.674793 0.0361303 0.0025 0.54575 0.42837 1.9623 0.00916171 55 4 1 -1.92789e-09 
-0.450262 -0.674951 0.0373388 0.0025 0.545667 0.428279 1.96218 0.0091631 56 4 1 9.4304e-10 
-0.44568 -0.675109 0.036969 0.0025 0.545585 0.428188 1.96206 0.00916447 57 4 1 6.04807e-09 
-0.441097 -0.675261 0.0344397 0.0025 0.545509 0.428103 1.96194 0.00916576 58 4 1 1.3076e-08 
-0.436514 -0.675399 0.0306792 0.0025 0.545442 0.42803 1.96184 0.00916688 59 4 1 1.84735e-08 
-0.43193 -0.675509 0.0242766 0.0025 0.545391 0.427973 1.96177 0.00916774 60 4 1 2.67305e-08 
-0.427346 -0.675577 0.0115498 0.0025 0.545361 0.427939 1.96172 0.00916824 61 4 1 1.62052e-08 
-0.422762 -0.675613 0.021418 0.0025 0.545346 0.427925 1.9617 0.00916848 62 5 1 8.12727e-08 
-0.418178 -0.675592 -0.0440259 0.0025 0.5454 0.427988 1.96177 0.00916759 63 4 1 2.15738e-07 
-0.413595 -0.675157 -0.145749 0.0025 0.545628 0.428239 1.96209 0.00916375 64 4 1 2.42934e-07 
-0.409014 -0.674376 -0.199898 0.0025 0.546053 0.42871 1.9627 0.00915662 65 4 1 3.82141e-07 
-0.404438 -0.673155 -0.375958 0.0025 0.546776 0.429518 1.96373 0.00914451 66 4 1 8.00477e-07 
-0.39987 -0.670748 -0.732279 0.0025 0.548085 0.430968 1.96561 0.00912267 67 4 1 1.17981e-06 
-0.395315 -0.666694 -1.12328 0.0025 0.55018 0.433273 1.96861 0.00908793 68 4 1 1.24757e-06 
-0.390782 -0.661246 -1.39132 0.0025 0.552988 0.436363 1.97262 0.00904178 69 4 1 1.15834e-06 
-0.386274 -0.654888 -1.57566 0.0025 0.556323 0.440048 1.97737 0.00898759 70 4 1 1.22277e-06 
-0.381794 -0.647764 -1.78503 0.0025 0.560115 0.444254 1.98275 0.00892674 71 4 1 1.41065e-06 
-0.377347 -0.639763 -2.00501 0.0025 0.564383 0.449003 1.98878 0.00885923 72 4 1 1.64499e-06 
-0.372935 -0.630858 -2.26198 0.0025 0.56916 0.454332 1.99549 0.00878488 73 4 1 1.82948e-06 
-0.368562 -0.621032 -2.48619 0.0025 0.574435 0.460234 2.00287 0.00870421 74 4 1 1.87895e-06 
-0.36423 -0.610534 -2.65909 0.0025 0.580116 0.466612 2.01077 0.00861897 75 4 1 1.79688e-06 
-0.359942 -0.599638 -2.74427 0.0025 0.586058 0.473309 2.01898 0.00853158 76 4 1 1.63746e-06 
-0.355698 -0.588662 -2.76918 0.0025 0.59211 0.48016 2.02729 0.00844438 77 4 1 1.49028e-06 
-0.351498 -0.577764 -2.75956 0.0025 0.598168 0.487049 2.03556 0.00835886 78 4 1 1.38677e-06 
-0.347339 -0.567061 -2.7451 0.0025 0.604181 0.493914 2.04372 0.00827567 79 4 1 1.2762e-06 
-0.343222 -0.55658 -2.69888 0.0025 0.61011 0.50071 2.05172 0.00819525 80 4 1 1.17938e-06 
-0.339144 -0.546403 -2.65862 0.0025 0.615929 0.507409 2.05952 0.00811782 81 4 1 1.12895e-06 
-0.335104 -0.536481 -2.62548 0.0025 0.621647 0.514016 2.06715 0.00804315 82 4 1 1.07335e-06 
-0.331101 -0.526801 -2.58705 0.0025 0.627268 0.520533 2.0746 0.00797108 83 4 1 1.01603e-06 
-0.327133 -0.517341 -2.54793 0.0025 0.632789 0.526959 2.08188 0.00790153 84 4 1 9.93613e-07 
-0.323199 -0.508118 -2.52746 0.0025 0.638231 0.533315 2.08902 0.00783416 85 4 1 9.99047e-07 
-0.319298 -0.499002 -2.52092 0.0025 0.643625 0.539636 2.09607 0.0077685 86 4 1 1.00039e-06 
-0.31543 -0.49001 -2.51762 0.0025 0.648993 0.54595 2.10304 0.00770424 87 4 1 1.04194e-06 
-0.311594 -0.481061 -2.55076 0.0025 0.654377 0.552302 2.11 0.00764086 88 4 1 1.09838e-06 
-0.307789 -0.472055 -2.59151 0.0025 0.659819 0.558745 2.117 0.00757784 89 4 1 1.16941e-06 
-0.304016 -0.462966 -2.66839 0.0025 0.66536 0.565325 2.12409 0.00751473 90 4 1 1.21216e-06 
-0.300274 -0.453722 -2.72432 0.0025 0.671014 0.572062 2.13129 0.00745141 91 4 1 1.20693e-06 
-0.296564 -0.444398 -2.77224 0.0025 0.676762 0.578934 2.13857 0.00738812 92 4 1 1.24606e-06 
-0.292886 -0.434969 -2.84619 0.0025 0.682613 0.585953 2.14595 0.00732479 93 4 1 1.2622e-06 
-0.28924 -0.425404 -2.8964 0.0025 0.688564 0.593115 2.15341 0.00726149 94 4 1 1.20016e-06 
-0.285624 -0.41588 -2.90563 0.0025 0.694562 0.600359 2.1609 0.00719878 95 4 1 1.18234e-06 
-0.282041 -0.406361 -2.94274 0.0025 0.70059 0.607665 2.16838 0.00713685 96 4 1 1.16862e-06 
-0.278487 -0.396848 -2.95212 0.0025 0.706642 0.615026 2.17585 0.00707571 97 4 1 1.12263e-06 
-0.274965 -0.387446 -2.95611 0.0025 0.712694 0.622413 2.18329 0.00701564 98 4 1 1.12909e-06 
-0.271472 -0.378058 -2.98657 0.0025 0.718756 0.629836 2.1907 0.00695646 99 4 1 1.08972e-06 
-0.268008 -0.368751 -2.97019 0.0025 0.724813 0.637279 2.19806 0.00689833 100 4 1 1.05909e-06 
-0.264573 -0.359552 -2.98462 0.0025 0.730852 0.644725 2.20537 0.00684133 101 4 1 1.06426e-06 
-0.261167 -0.35039 -2.99482 0.0025 0.73689 0.652194 2.21264 0.00678527 102 4 1 1.01379e-06 
-0.257788 -0.341341 -2.97615 0.0025 0.742905 0.659658 2.21984 0.00673033 103 4 1 9.93921e-07 
-0.254436 -0.332383 -2.9839 0.0025 0.748895 0.667118 2.22698 0.0066765 104 4 1 1.02956e-06 
-0.251111 -0.323461 -3.01887 0.0025 0.754898 0.674615 2.23411 0.00662341 105 4 1 9.78943e-07 
-0.247813 -0.314582 -2.98965 0.0025 0.760888 0.68212 2.24118 0.00657127 106 4 1 9.3354e-07 
-0.24454 -0.305868 -2.99149 0.0025 0.766844 0.689609 2.24818 0.00652023 107 4 1 9.83643e-07 
-0.241292 -0.297153 -3.03393 0.0025 0.772814 0.697135 2.25517 0.00646986 108 4 1 9.40324e-07 
-0.23807 -0.288498 -3.00621 0.0025 0.778776 0.704674 2.26211 0.00642033 109 4 1 8.7261e-07 
-0.234872 -0.279993 -2.98863 0.0025 0.784691 0.71218 2.26897 0.00637194 110 4 1 9.05884e-07 
-0.231698 -0.271564 -3.01781 0.0025 0.790598 0.719699 2.27578 0.00632432 111 4 1 9.50852e-07 
-0.228548 -0.263064 -3.06189 0.0025 0.79654 0.727279 2.28261 0.00627715 112 4 1 8.48421e-07 
-0.225421 -0.254693 -2.99103 0.0025 0.802448 0.734841 2.28936 0.00623093 113 4 1 8.1352e-07 
-0.222317 -0.246493 -3.00905 0.0025 0.808306 0.742367 2.29603 0.00618578 114 4 1 9.1664e-07 
-0.219235 -0.238211 -3.07478 0.0025 0.814204 0.749959 2.30272 0.00614097 115 4 1 8.47447e-07 
-0.216175 -0.22999 -3.02757 0.0025 0.820098 0.757568 2.30938 0.00609683 116 4 1 7.57775e-07 
-0.213138 -0.221955 -3.00006 0.0025 0.825928 0.765119 2.31593 0.0060538 117 4 1 8.0565e-07 
-0.210122 -0.213994 -3.03005 0.0025 0.831743 0.772675 2.32243 0.00601147 118 4 1 8.66433e-07 
-0.207126 -0.205967 -3.085 0.0025 0.837602 0.780304 2.32896 0.00596942 119 4 1 8.03836e-07 
-0.204152 -0.197963 -3.04984 0.0025 0.843459 0.787949 2.33547 0.00592797 120 4 1 6.95629e-07 
-0.201198 -0.190184 -2.99071 0.0025 0.84924 0.795522 2.34185 0.00588762 121 4 1 7.59603e-07 
-0.198264 -0.182454 -3.0505 0.0025 0.855007 0.8031 2.3482 0.00584791 122 4 1 8.69641e-07 
-0.19535 -0.174591 -3.13461 0.0025 0.860854 0.810795 2.35461 0.00580819 123 4 1 7.23093e-07 
-0.192456 -0.166807 -3.02822 0.0025 0.866669 0.818467 2.36096 0.00576922 124 4 1 5.76335e-07 
-0.189581 -0.159358 -2.94995 0.0025 0.872348 0.825991 2.36713 0.00573166 125 4 1 7.4365e-07 
-0.186724 -0.151913 -3.07035 0.0025 0.878041 0.833555 2.3733 0.00569449 126 4 1 8.96872e-07 
-0.183886 -0.144201 -3.18462 0.0025 0.883875 0.841311 2.3796 0.00565691 127 4 1 6.6196e-07 
-0.181067 -0.1366 -3.01836 0.0025 0.889662 0.849024 2.38582 0.00562011 128 4 1 4.88389e-07 
-0.178266 -0.129446 -2.93022 0.0025 0.895269 0.856534 2.39182 0.00558491 129 4 1 7.40217e-07 
-0.175482 -0.122202 -3.10613 0.0025 0.900921 0.864122 2.39784 0.00554987 130 4 1 9.06303e-07 
-0.172716 -0.114612 -3.23204 0.0025 0.906754 0.871954 2.40405 0.00551417 131 4 1 5.84234e-07 
-0.169968 -0.107211 -3.00206 0.0025 0.912502 0.879691 2.41013 0.00547944 132 4 1 3.61529e-07 
-0.167237 -0.100348 -2.86623 0.0025 0.917995 0.887125 2.41592 0.00544665 133 4 1 6.76044e-07 
-0.164522 -0.0934417 -3.07412 0.0025 0.923518 0.894618 2.42172 0.00541408 134 4 1 9.05349e-07 
-0.161823 -0.086099 -3.23654 0.0025 0.92927 0.902418 2.42775 0.00538057 135 4 1 6.10039e-07 
-0.159141 -0.0788437 -3.0487 0.0025 0.934994 0.910197 2.43372 0.00534763 136 4 1 3.34528e-07 
-0.156475 -0.0721261 -2.86655 0.0025 0.940466 0.917671 2.4394 0.00531651 137 4 1 5.80223e-07 
-0.153824 -0.0654616 -3.03934 0.0025 0.945913 0.925134 2.44504 0.0052859 138 4 1 8.54064e-07 
-0.151189 -0.0584018 -3.23222 0.0025 0.951577 0.93289 2.45089 0.00525444 139 4 1 5.85567e-07 
-0.14857 -0.0513399 -3.04241 0.0025 0.957225 0.940635 2.4567 0.00522343 140 4 1 2.16567e-07 
-0.145966 -0.0449189 -2.76151 0.0025 0.962559 0.94799 2.46216 0.00519448 141 4 1 5.19904e-07 
-0.143375 -0.038617 -3.02014 0.0025 0.967854 0.955318 2.46756 0.00516607 142 4 1 9.48351e-07 
-0.1408 -0.031631 -3.34003 0.0025 0.973462 0.963058 2.4733 0.00513631 143 4 1 2.41441e-07 
-0.138239 -0.0249253 -2.6646 0.0025 0.978811 0.97044 2.47872 0.00510824 144 4 1 -4.24097e-07 
-0.135691 -0.0199 -2.08431 0.0025 0.983396 0.976857 2.48331 0.00508442 145 4 1 1.11833e-06 
-0.133155 -0.0141312 -3.54069 0.0025 0.988536 0.984072 2.4885 0.00505798 146 4 1 2.20521e-06 
-0.130633 -0.00543549 -4.40001 0.0025 0.995034 0.993041 2.49513 0.00502495 147 4 1 -9.85012e-07 
-0.12813 0.00133863 -1.61655 0.0025 1.00022 1.00019 2.5003 0.00499891 148 4 1 -2.4838e-06 
-0.125634 0.00282296 -0.267238 0.0025 1.00276 1.0039 2.5027 0.00498626 149 4 1 1.71277e-06 
-0.123143 0.00669045 -3.69451 0.0025 1.00653 1.0093 2.50649 0.00496758 150 4 1 3.39836e-06 
-0.120667 0.0160724 -4.68782 0.0025 1.013 1.01822 2.51307 0.00493582 151 4 1 -1.72582e-06 
-0.118207 0.0219096 -0.926679 0.0025 1.01764 1.02465 2.51763 0.00491334 152 4 1 -2.90117e-06 
-0.115753 0.0222155 0.0614778 0.0025 1.019 1.0267 2.5189 0.00490676 153 4 1 1.12807e-07 
-0.113301 0.0237142 -1.17255 0.0025 1.02011 1.02828 2.52003 0.00490141 154 4 1 -5.62081e-08 
-0.110852 0.0252433 -0.282726 0.0025 1.02113 1.02966 2.52105 0.00489653 155 3 1 -1.11177e-06 
-0.108404 0.0249995 0.283629 0.0025 1.02093 1.0294 2.52084 0.00489751 156 4 1 -6.77568e-07 
-0.105954 0.0238627 0.655609 0.0025 1.01988 1.02793 2.51979 0.00490256 157 4 1 -3.84449e-07 
-0.103502 0.0221292 0.908517 0.0025 1.01834 1.02576 2.51826 0.00490997 158 4 1 -2.05311e-07 
-0.101044 0.0200119 1.06749 0.0025 1.0165 1.02318 2.51644 0.00491883 159 4 1 -6.38429e-08 
-0.0985827 0.0176872 1.14363 0.0025 1.01452 1.02039 2.51447 0.00492845 160 4 1 4.58435e-08 
-0.096116 0.0153009 1.1533 0.0025 1.01251 1.01756 2.51247 0.00493824 161 4 1 1.25286e-07 
-0.0936445 0.0129671 1.1118 0.0025 1.01056 1.01482 2.51053 0.00494777 162 4 1 1.77183e-07 
-0.0911682 0.0107708 1.03364 0.0025 1.00873 1.01226 2.50872 0.0049567 163 4 1 2.06047e-07 
-0.0886878 0.00876983 0.931425 0.0025 1.00709 1.00995 2.50707 0.00496482 164 4 1 2.16687e-07 
-0.0862034 0.00699935 0.815879 0.0025 1.00564 1.00791 2.50563 0.00497197 165 4 1 2.13627e-07 
-0.0837158 0.00547486 0.695841 0.0025 1.0044 1.00617 2.50439 0.00497812 166 4 1 2.00811e-07 
-0.0812253 0.00419607 0.578351 0.0025 1.00336 1.00471 2.50335 0.00498326 167 4 1 1.81578e-07 
-0.0787325 0.0031504 0.4687 0.0025 1.00252 1.00353 2.50251 0.00498746 168 4 1 1.58719e-07 
-0.0762378 0.00231657 0.370475 0.0025 1.00184 1.00259 2.50184 0.00499079 169 4 1 1.34507e-07 
-0.0737417 0.00166798 0.285685 0.0025 1.00133 1.00186 2.50132 0.00499338 170 4 1 1.10708e-07 
-0.0712445 0.00117574 0.214963 0.0025 1.00093 1.00131 2.50093 0.00499534 171 4 1 8.86022e-08 
-0.0687464 0.000811168 0.157855 0.0025 1.00064 1.0009 2.50064 0.00499679 172 4 1 6.90041e-08 
-0.0662477 0.00054762 0.11314 0.0025 1.00043 1.00061 2.50043 0.00499784 173 4 1 5.23246e-08 
-0.0637485 0.000361648 0.0791531 0.0025 1.00029 1.0004 2.50028 0.00499857 174 4 1 3.86453e-08 
-0.0612491 0.000233545 0.0540504 0.0025 1.00018 1.00026 2.50018 0.00499908 175 4 1 2.78067e-08 
-0.0587495 0.000147412 0.0360212 0.0025 1.00012 1.00016 2.50012 0.00499942 176 4 1 1.94948e-08 
-0.0562497 9.08915e-05 0.0234232 0.0025 1.00007 1.0001 2.50007 0.00499964 177 4 1 1.33171e-08 
-0.0537498 5.47063e-05 0.0148559 0.0025 1.00004 1.00006 2.50004 0.00499978 178 4 1 8.86291e-09 
-0.0512499 3.21141e-05 0.00918535 0.0025 1.00003 1.00004 2.50003 0.00499987 179 4 1 5.74536e-09 
-0.0487499 1.83666e-05 0.00553256 0.0025 1.00001 1.00002 2.50001 0.00499993 180 4 1 3.62631e-09 
-0.04625 1.02202e-05 0.00324332 0.0025 1.00001 1.00001 2.50001 0.00499996 181 4 1 2.22728e-09 
-0.04375 5.52421e-06 0.00184828 0.0025 1 1.00001 2.5 0.00499998 182 4 1 1.33017e-09 
-0.04125 2.89435e-06 0.00102234 0.0025 1 1 2.5 0.00499999 183 4 1 7.71626e-10 
-0.03875 1.46606e-06 0.0005478 0.0025 1 1 2.5 0.00499999 184 4 1 4.3419e-10 
-0.03625 7.1545e-07 0.000283622 0.0025 1 1 2.5 0.005 185 4 1 2.3656e-10 
-0.03375 3.34845e-07 0.000141415 0.0025 1 1 2.5 0.005 186 4 1 1.245e-10 
-0.03125 1.49355e-07 6.75974e-05 0.0025 1 1 2.5 0.005 187 4 1 6.30963e-11 
-0.02875 6.29226e-08 3.07834e-05 0.0025 1 1 2.5 0.005 188 4 1 3.06624e-11 
-0.02625 2.46996e-08 1.32335e-05 0.0025 1 1 2.5 0.005 189 4 1 1.42042e-11 
-0.02375 8.83452e-09 5.29449e-06 0.0025 1 1 2.5 0.005 190 4 1 6.21877e-12 
-0.02125 2.7633e-09 1.92348e-06 0.0025 1 1 2.5 0.005 191 4 1 2.53929e-12 
-0.01875 6.89065e-10 6.05657e-07 0.0025 1 1 2.5 0.005 192 4 1 9.43243e-13 
-0.01625 9.93737e-11 1.44745e-07 0.0025 1 1 2.5 0.005 193 4 1 3.11656e-13 
-0.01375 -1.27752e-11 5.20436e-09 0.0025 1 1 2.5 0.005 194 5 1 8.0534e-14 
-0.01125 1.23953e-11 -1.62862e-08 0.0025 1 1 2.5 0.005 195 4 1 -5.64171e-16 
-0.00875 2.19142e-11 1.56547e-10 0.0025 1 1 2.5 0.005 196 3 1 -8.80966e-15 
-0.00625 1.67369e-11 3.16754e-09 0.0025 1 1 2.5 0.005 197 4 1 -7.56728e-16 
-0.00375 9.35589e-12 2.67801e-09 0.0025 1 1 2.5 0.005 198 4 1 1.65841e-15 
-0.00125 2.91663e-12 9.51957e-10 0.0025 1 1 2.5 0.005 199 4 1 2.2041e-15 
0.00125 -2.90737e-12 -9.51331e-10 0.0025 1 1 2.5 0.005 200 5 1 2.20588e-15 
0.00375 -9.34632e-12 -2.67801e-09 0.0025 1 1 2.5 0.005 201 4 1 1.65805e-15 
0.00625 -1.67266e-11 -3.16646e-09 0.0025 1 1 2.5 0.005 202 4 1 -7.56728e-16 
0.00875 -2.19034e-11 -1.56547e-10 0.0025 1 1 2.5 0.005 203 3 1 -8.81464e-15 
0.01125 -1.23851e-11 1.62862e-08 0.0025 1 1 2.5 0.005 204 4 1 -5.54579e-16 
0.01375 1.2786e-11 -5.20333e-09 0.0025 1 1 2.5 0.005 205 5 1 8.05187e-14 
0.01625 -9.93643e-11 -1.44746e-07 0.0025 1 1 2.5 0.005 206 4 1 3.11676e-13 
0.01875 -6.89058e-10 -6.05657e-07 0.0025 1 1 2.5 0.005 207 4 1 9.43233e-13 
0.02125 -2.76329e-09 -1.92348e-06 0.0025 1 1 2.5 0.005 208 4 1 2.53929e-12 
0.02375 -8.83451e-09 -5.29449e-06 0.0025 1 1 2.5 0.005 209 4 1 6.21878e-12 
0.02625 -2.46996e-08 -1.32335e-05 0.0025 1 1 2.5 0.005 210 4 1 1.42041e-11 
0.02875 -6.29226e-08 -3.07834e-05 0.0025 1 1 2.5 0.005 211 4 1 3.06625e-11 
0.03125 -1.49355e-07 -6.75974e-05 0.0025 1 1 2.5 0.005 212 4 1 6.30963e-11 
0.03375 -3.34845e-07 -0.000141415 0.0025 1 1 2.5 0.005 213 4 1 1.245e-10 
0.03625 -7.1545e-07 -0.000283622 0.0025 1 1 2.5 0.005 214 4 1 2.3656e-10 
0.03875 -1.46606e-06 -0.0005478 0.0025 1 1 2.5 0.00499999 215 4 1 4.3419e-10 
0.04125 -2.89435e-06 -0.00102234 0.0025 1 1 2.5 0.00499999 216 4 1 7.71626e-10 
0.04375 -5.52421e-06 -0.00184828 0.0025 1 1.00001 2.5 0.00499998 217 4 1 1.33017e-09 
0.04625 -1.02202e-05 -0.00324332 0.0025 1.00001 1.00001 2.50001 0.00499996 218 4 1 2.22728e-09 
