# Time [s]: 0.312829
# Columns: pos [m], vel [m/s], acc [m/s^2], mass [kg], dens [kg/m^3], pres [Pa], ene [J/kg], sml [m], id, neighbor, alpha, gradh, ...additional?
1.29166 -0.673097 0.00040776 0.0025 0.51105 0.432726 2.1525 0.00978378 0 4 1 -0.000134226 
1.29644 -0.673098 0.000431942 0.0025 0.536907 0.426188 1.95004 0.00931261 1 4 1 0.000179252 
1.30098 -0.673099 0.000453863 0.0025 0.548236 0.430857 1.9685 0.00912016 2 3 1 -1.90586e-05 
1.30556 -0.673101 0.000474401 0.0025 0.54597 0.429192 1.96464 0.00915801 3 5 1 3.48581e-06 
1.31014 -0.673102 0.00049409 0.0025 0.546368 0.429346 1.96458 0.00915135 4 4 1 -1.38721e-07 
1.31471 -0.673104 0.000515161 0.0025 0.546378 0.429316 1.96434 0.00915118 5 4 1 1.4368e-07 
1.31929 -0.673106 0.000539767 0.0025 0.5464 0.429313 1.96428 0.00915081 6 4 1 -3.5694e-09 
1.32387 -0.673109 0.000568324 0.0025 0.546412 0.429309 1.96422 0.0091506 7 4 1 8.16663e-09 
1.32844 -0.673111 0.000599352 0.0025 0.546425 0.429308 1.96416 0.00915038 8 4 1 4.68984e-09 
1.33302 -0.673113 0.000631243 0.0025 0.546436 0.429306 1.96412 0.00915019 9 4 1 5.39814e-09 
1.33759 -0.673116 0.000664422 0.0025 0.546447 0.429304 1.96407 0.00915002 10 4 1 -2.32308e-09 
1.34217 -0.673119 0.000701769 0.0025 0.546456 0.429302 1.96403 0.00914986 11 4 1 4.63272e-09 
1.34674 -0.673122 0.000746558 0.0025 0.546465 0.429301 1.96399 0.00914971 12 4 1 2.73622e-09 
1.35132 -0.673126 0.000799586 0.0025 0.546473 0.429299 1.96395 0.00914959 13 4 1 3.43769e-09 
1.35589 -0.673129 0.000858128 0.0025 0.546479 0.429296 1.96392 0.00914948 14 4 1 1.97358e-09 
1.36046 -0.673133 0.000918082 0.0025 0.546485 0.429294 1.96389 0.00914939 15 4 1 -1.73052e-09 
1.36504 -0.673138 0.000977913 0.0025 0.54649 0.429292 1.96386 0.0091493 16 4 1 4.754e-09 
1.36961 -0.673142 0.0010411 0.0025 0.546494 0.429289 1.96383 0.00914923 17 4 1 1.3254e-09 
1.37419 -0.673147 0.00111438 0.0025 0.546498 0.429286 1.96381 0.00914917 18 4 1 -1.37225e-09 
1.37876 -0.673152 0.00120225 0.0025 0.546501 0.429283 1.96378 0.00914911 19 4 1 2.49104e-09 
1.38334 -0.673158 0.00130204 0.0025 0.546504 0.42928 1.96376 0.00914907 20 4 1 9.37852e-10 
1.38791 -0.673164 0.00140456 0.0025 0.546505 0.429276 1.96373 0.00914904 21 4 1 9.56018e-10 
1.39249 -0.673171 0.00150205 0.0025 0.546506 0.429273 1.96371 0.00914903 22 4 1 8.31065e-10 
1.39706 -0.673178 0.00159744 0.0025 0.546507 0.429269 1.96369 0.00914902 23 4 1 -3.99258e-10 
1.40164 -0.673186 0.00170607 0.0025 0.546507 0.429264 1.96367 0.00914902 24 3 1 1.21488e-09 
1.40621 -0.673194 0.00184538 0.0025 0.546506 0.42926 1.96365 0.00914902 25 4 1 4.03094e-10 
1.41078 -0.673203 0.00201982 0.0025 0.546505 0.429255 1.96363 0.00914904 26 4 1 -7.7138e-10 
1.41536 -0.673213 0.00221489 0.0025 0.546504 0.429249 1.96361 0.00914907 27 4 1 7.67079e-10 
1.41993 -0.673223 0.00240785 0.0025 0.546501 0.429243 1.9636 0.00914911 28 4 1 4.0772e-10 
1.42451 -0.673234 0.00258753 0.0025 0.546498 0.429237 1.96358 0.00914916 29 4 1 -1.2129e-09 
1.42908 -0.673247 0.0027663 0.0025 0.546494 0.429229 1.96356 0.00914922 30 4 1 3.51799e-11 
1.43366 -0.67326 0.00297359 0.0025 0.54649 0.429222 1.96354 0.0091493 31 4 1 1.40202e-09 
1.43823 -0.673275 0.00323605 0.0025 0.546485 0.429214 1.96352 0.00914938 32 4 1 -1.57659e-09 
1.44281 -0.673291 0.00356049 0.0025 0.546479 0.429205 1.9635 0.00914948 33 4 1 -1.71761e-09 
1.44738 -0.673308 0.00393292 0.0025 0.546473 0.429195 1.96348 0.00914959 34 4 1 1.0856e-09 
1.45196 -0.673327 0.00433371 0.0025 0.546465 0.429184 1.96346 0.00914972 35 4 1 -1.34096e-09 
1.45653 -0.673348 0.004755 0.0025 0.546456 0.429172 1.96344 0.00914987 36 4 1 -2.09417e-09 
1.46111 -0.673371 0.00520581 0.0025 0.546446 0.429159 1.96341 0.00915004 37 4 1 1.07793e-10 
1.46568 -0.673396 0.00570337 0.0025 0.546434 0.429145 1.96339 0.00915023 38 4 1 -1.36793e-09 
1.47026 -0.673423 0.00626443 0.0025 0.546422 0.429129 1.96336 0.00915045 39 4 1 -2.38618e-09 
1.47483 -0.673454 0.00690852 0.0025 0.546407 0.429111 1.96333 0.00915068 40 4 1 -1.19787e-09 
1.47941 -0.673488 0.00766452 0.0025 0.546391 0.429092 1.9633 0.00915095 41 4 1 -1.79808e-09 
1.48398 -0.673526 0.00855742 0.0025 0.546373 0.429071 1.96327 0.00915126 42 4 1 -3.23989e-09 
1.48856 -0.673568 0.00957083 0.0025 0.546353 0.429047 1.96323 0.0091516 43 4 1 -2.93657e-09 
1.49313 -0.673615 0.0106238 0.0025 0.546329 0.42902 1.96319 0.00915199 44 4 1 -2.0995e-09 
1.49771 -0.673668 0.0116224 0.0025 0.546303 0.42899 1.96315 0.00915242 45 4 1 -3.42146e-09 
-0.497713 -0.67373 0.0125972 0.0025 0.546275 0.428957 1.9631 0.0091529 46 4 1 -3.91938e-09 
-0.493136 -0.6738 0.0138006 0.0025 0.546243 0.428921 1.96305 0.00915343 47 4 1 -3.34765e-09 
-0.488559 -0.67388 0.0155696 0.0025 0.546208 0.428881 1.96299 0.00915402 48 4 1 -5.05374e-09 
-0.483982 -0.67397 0.0179998 0.0025 0.546168 0.428836 1.96293 0.00915469 49 4 1 -7.42626e-09 
-0.479405 -0.674068 0.0208368 0.0025 0.546123 0.428785 1.96286 0.00915545 50 4 1 -8.02472e-09 
-0.474827 -0.674175 0.0237878 0.0025 0.54607 0.428727 1.96278 0.00915633 51 4 1 -7.32177e-09 
-0.470248 -0.674292 0.0267878 0.0025 0.546011 0.42866 1.96269 0.00915732 52 4 1 -7.8895e-09 
-0.465669 -0.67442 0.029814 0.0025 0.545945 0.428587 1.96259 0.00915843 53 4 1 -8.08311e-09 
-0.46109 -0.674558 0.0326645 0.0025 0.545873 0.428506 1.96248 0.00915965 54 4 1 -5.97109e-09 
-0.45651 -0.674705 0.035063 0.0025 0.545795 0.42842 1.96237 0.00916095 55 4 1 -3.14496e-09 
-0.451929 -0.67486 0.0366187 0.0025 0.545713 0.42833 1.96225 0.00916232 56 4 1 -7.21037e-10 
-0.447347 -0.675018 0.0368171 0.0025 0.545631 0.428239 1.96212 0.0091637 57 4 1 3.44542e-09 
-0.442765 -0.675175 0.0356705 0.0025 0.545552 0.428151 1.96201 0.00916503 58 4 1 9.35473e-09 
-0.438182 -0.67532 0.0330827 0.0025 0.54548 0.428071 1.9619 0.00916624 59 4 1 1.4458e-08 
-0.433599 -0.675445 0.0280051 0.0025 0.54542 0.428005 1.96181 0.00916725 60 4 1 2.21307e-08 
-0.429015 -0.675537 0.0197828 0.0025 0.545378 0.427958 1.96174 0.00916796 61 4 1 2.37627e-08 
-0.424431 -0.675578 0.00907066 0.0025 0.545356 0.427933 1.96171 0.00916833 62 5 1 2.99685e-08 
-0.419847 -0.675626 0.0096221 0.0025 0.54536 0.427941 1.96171 0.00916826 63 4 1 1.40422e-07 
-0.415263 -0.675456 -0.0920082 0.0025 0.545479 0.428076 1.96188 0.00916625 64 4 1 2.41617e-07 
-0.410681 -0.674832 -0.172309 0.0025 0.545795 0.428422 1.96233 0.00916095 65 4 1 2.701e-07 
-0.406102 -0.673916 -0.252294 0.0025 0.546326 0.429015 1.96309 0.00915204 66 4 1 5.29311e-07 
-0.401529 -0.672274 -0.508616 0.0025 0.54726 0.430055 1.96443 0.00913643 67 4 1 9.83138e-07 
-0.396965 -0.669204 -0.903312 0.0025 0.548889 0.431852 1.96676 0.00910932 68 4 1 1.24048e-06 
-0.392419 -0.664515 -1.24888 0.0025 0.5513 0.434503 1.97021 0.00906948 69 4 1 1.20571e-06 
-0.387896 -0.65865 -1.47089 0.0025 0.554342 0.437856 1.97455 0.00901971 70 4 1 1.15146e-06 
-0.383399 -0.652006 -1.65184 0.0025 0.557858 0.441749 1.97955 0.00896285 71 4 1 1.27003e-06 
-0.378933 -0.644537 -1.86314 0.0025 0.561824 0.446153 1.98517 0.00889958 72 4 1 1.48297e-06 
-0.3745 -0.636236 -2.09344 0.0025 0.566271 0.451106 1.99143 0.0088297 73 4 1 1.70723e-06 
-0.370103 -0.626999 -2.3429 0.0025 0.571222 0.456636 1.99838 0.00875316 74 4 1 1.84058e-06 
-0.365746 -0.616966 -2.54454 0.0025 0.576637 0.462703 2.00594 0.00867096 75 4 1 1.8303e-06 
-0.361432 -0.606345 -2.68149 0.0025 0.582397 0.469179 2.01393 0.0085852 76 4 1 1.70877e-06 
-0.357161 -0.595463 -2.736 0.0025 0.588351 0.475901 2.02214 0.00849832 77 4 1 1.55796e-06 
-0.352933 -0.58457 -2.75018 0.0025 0.59437 0.482727 2.03038 0.00841227 78 4 1 1.42896e-06 
-0.348748 -0.57383 -2.73372 0.0025 0.600373 0.489563 2.03856 0.00832816 79 4 1 1.32815e-06 
-0.344605 -0.563265 -2.71265 0.0025 0.606316 0.496358 2.04661 0.00824652 80 4 1 1.22564e-06 
-0.340502 -0.552978 -2.66602 0.0025 0.612168 0.503076 2.05448 0.0081677 81 4 1 1.14169e-06 
-0.336437 -0.54297 -2.6282 0.0025 0.617911 0.509695 2.06217 0.00809178 82 4 1 1.08786e-06 
-0.33241 -0.533195 -2.58984 0.0025 0.623552 0.516221 2.06967 0.00801858 83 4 1 1.04453e-06 
-0.328418 -0.523651 -2.56072 0.0025 0.629099 0.522662 2.07702 0.00794787 84 4 1 9.89785e-07 
-0.324462 -0.514344 -2.51631 0.0025 0.634553 0.529017 2.0842 0.00787956 85 4 1 9.79143e-07 
-0.320539 -0.505218 -2.5102 0.0025 0.639937 0.535312 2.09125 0.00781327 86 4 1 9.9115e-07 
-0.316648 -0.496206 -2.50148 0.0025 0.645286 0.541587 2.09823 0.0077485 87 4 1 9.91867e-07 
-0.31279 -0.487304 -2.50616 0.0025 0.650617 0.547863 2.10514 0.00768501 88 4 1 1.04649e-06 
-0.308963 -0.478399 -2.54677 0.0025 0.655978 0.554195 2.11206 0.00762221 89 4 1 1.10244e-06 
-0.305168 -0.469462 -2.59169 0.0025 0.661408 0.56063 2.11904 0.00755963 90 4 1 1.16254e-06 
-0.301403 -0.460381 -2.66504 0.0025 0.666939 0.567204 2.1261 0.00749694 91 4 1 1.19374e-06 
-0.297671 -0.451174 -2.71609 0.0025 0.672576 0.573927 2.13327 0.0074341 92 4 1 1.19308e-06 
-0.293969 -0.441899 -2.76634 0.0025 0.678305 0.580783 2.14052 0.00737131 93 4 1 1.24426e-06 
-0.290299 -0.432507 -2.84751 0.0025 0.684142 0.587791 2.14787 0.00730842 94 4 1 1.22805e-06 
-0.286661 -0.423013 -2.8725 0.0025 0.690065 0.594924 2.15529 0.0072457 95 4 1 1.16616e-06 
-0.283053 -0.413566 -2.89059 0.0025 0.69602 0.602125 2.16271 0.0071837 96 4 1 1.17265e-06 
-0.279477 -0.404117 -2.92907 0.0025 0.702012 0.609392 2.17014 0.00712239 97 4 1 1.13495e-06 
-0.275931 -0.394701 -2.92393 0.0025 0.708018 0.616703 2.17755 0.00706196 98 4 1 1.10425e-06 
-0.272415 -0.385387 -2.94336 0.0025 0.714023 0.624039 2.18491 0.00700257 99 4 1 1.10976e-06 
-0.268928 -0.376075 -2.96042 0.0025 0.720041 0.631412 2.19226 0.00694405 100 4 1 1.06137e-06 
-0.26547 -0.366875 -2.94809 0.0025 0.726046 0.638796 2.19955 0.00688662 101 4 1 1.04541e-06 
-0.262041 -0.357758 -2.9652 0.0025 0.732037 0.646189 2.2068 0.00683025 102 4 1 1.03542e-06 
-0.25864 -0.348676 -2.9645 0.0025 0.738023 0.653597 2.214 0.00677486 103 4 1 9.94166e-07 
-0.255266 -0.339714 -2.95602 0.0025 0.743984 0.661 2.22113 0.00672057 104 4 1 9.81993e-07 
-0.251919 -0.33085 -2.96072 0.0025 0.749927 0.668404 2.22821 0.00666732 105 4 1 1.01094e-06 
-0.248599 -0.321983 -2.99747 0.0025 0.755881 0.675845 2.23527 0.0066148 106 4 1 9.59087e-07 
-0.245305 -0.313211 -2.96432 0.0025 0.761823 0.683293 2.24228 0.00656321 107 4 1 9.22596e-07 
-0.242036 -0.304581 -2.97508 0.0025 0.767733 0.690728 2.24922 0.00651268 108 4 1 9.64878e-07 
-0.238792 -0.295931 -3.00684 0.0025 0.773656 0.698199 2.25615 0.00646282 109 4 1 9.19342e-07 
-0.235573 -0.287365 -2.98408 0.0025 0.779568 0.705677 2.26303 0.00641381 110 4 1 8.51658e-07 
-0.232378 -0.278929 -2.95808 0.0025 0.78543 0.713119 2.26982 0.00636594 111 4 1 8.97449e-07 
-0.229207 -0.270576 -3.00341 0.0025 0.79129 0.720581 2.27658 0.00631879 112 4 1 9.36043e-07 
-0.226059 -0.262134 -3.03224 0.0025 0.797186 0.728104 2.28335 0.00627207 113 4 1 8.24235e-07 
-0.222935 -0.253847 -2.9657 0.0025 0.803041 0.735602 2.29004 0.00622633 114 4 1 8.11202e-07 
-0.219833 -0.24572 -2.99297 0.0025 0.808855 0.743073 2.29666 0.00618157 115 4 1 9.01305e-07 
-0.216753 -0.237505 -3.04828 0.0025 0.81471 0.750612 2.30329 0.00613715 116 4 1 8.32575e-07 
-0.213695 -0.229368 -3.0084 0.0025 0.820559 0.758163 2.30989 0.00609341 117 4 1 7.43178e-07 
-0.210659 -0.221392 -2.97262 0.0025 0.826341 0.765656 2.31639 0.00605077 118 4 1 7.85776e-07 
-0.207644 -0.213495 -3.00422 0.0025 0.832106 0.773147 2.32284 0.00600885 119 4 1 8.5844e-07 
-0.20465 -0.205538 -3.06392 0.0025 0.837918 0.780716 2.32932 0.00596717 120 4 1 7.90099e-07 
-0.201677 -0.197593 -3.02299 0.0025 0.843729 0.788302 2.33576 0.00592607 121 4 1 6.84612e-07 
-0.198724 -0.189865 -2.97096 0.0025 0.849464 0.795816 2.3421 0.00588607 122 4 1 7.46778e-07 
-0.195791 -0.182221 -3.02276 0.0025 0.855185 0.803335 2.3484 0.00584669 123 4 1 8.52654e-07 
-0.192878 -0.17442 -3.10869 0.0025 0.860983 0.810965 2.35475 0.00580732 124 4 1 7.2323e-07 
-0.189984 -0.166688 -3.01445 0.0025 0.866758 0.818585 2.36106 0.00576862 125 4 1 5.68251e-07 
-0.187109 -0.159279 -2.92709 0.0025 0.872399 0.826058 2.36719 0.00573132 126 4 1 7.12497e-07 
-0.184252 -0.151925 -3.03164 0.0025 0.878039 0.833551 2.3733 0.00569451 127 4 1 8.87943e-07 
-0.181414 -0.144288 -3.16503 0.0025 0.883821 0.84124 2.37954 0.00565725 128 4 1 6.75223e-07 
-0.178595 -0.136717 -3.00965 0.0025 0.889576 0.848909 2.38573 0.00562066 129 4 1 4.74288e-07 
-0.175794 -0.129577 -2.90501 0.0025 0.895148 0.85637 2.39169 0.00558567 130 4 1 6.97211e-07 
-0.173009 -0.12245 -3.05596 0.0025 0.900737 0.863874 2.39765 0.00555101 131 4 1 8.95966e-07 
-0.170243 -0.11494 -3.20832 0.0025 0.906509 0.871626 2.40379 0.00551566 132 4 1 6.261e-07 
-0.167494 -0.107539 -3.01775 0.0025 0.91224 0.879338 2.40986 0.00548101 133 4 1 3.52371e-07 
-0.164761 -0.100676 -2.83977 0.0025 0.917713 0.886742 2.41562 0.00544832 134 4 1 6.04495e-07 
-0.162045 -0.0938809 -3.00792 0.0025 0.923165 0.894137 2.42135 0.00541615 135 4 1 8.94831e-07 
-0.159345 -0.0866572 -3.21139 0.0025 0.928845 0.901843 2.4273 0.00538303 136 4 1 6.69891e-07 
-0.156662 -0.0793966 -3.07367 0.0025 0.934558 0.909604 2.43327 0.00535012 137 4 1 3.40443e-07 
-0.153995 -0.0726597 -2.85608 0.0025 0.940028 0.917069 2.43895 0.00531899 138 4 1 4.92233e-07 
-0.151343 -0.0660932 -2.95605 0.0025 0.945404 0.924434 2.44451 0.00528875 139 4 1 8.21109e-07 
-0.148706 -0.0591653 -3.19289 0.0025 0.950978 0.932071 2.45027 0.00525775 140 4 1 6.75731e-07 
-0.146085 -0.0520847 -3.09282 0.0025 0.956621 0.939807 2.45609 0.00522673 141 4 1 2.43177e-07 
-0.14348 -0.045583 -2.76357 0.0025 0.961977 0.947181 2.46157 0.00519763 142 4 1 3.68873e-07 
-0.140888 -0.039429 -2.87201 0.0025 0.967172 0.954374 2.46686 0.00516971 143 4 1 9.28132e-07 
-0.13831 -0.0326693 -3.32451 0.0025 0.972678 0.961982 2.47249 0.00514045 144 4 1 5.3195e-07 
-0.135747 -0.0257126 -2.9147 0.0025 0.978163 0.969543 2.47807 0.00511162 145 4 1 -4.70396e-07 
-0.133198 -0.0203876 -2.01508 0.0025 0.982835 0.976055 2.48276 0.00508732 146 4 1 5.09312e-07 
-0.13066 -0.0153182 -2.96863 0.0025 0.987565 0.982717 2.48751 0.00506296 147 4 1 2.34353e-06 
-0.128135 -0.00724114 -4.54013 0.0025 0.99381 0.991371 2.49387 0.00503114 148 4 1 9.87481e-08 
-0.125629 0.000745639 -2.52257 0.0025 0.999656 0.999408 2.49976 0.00500172 149 4 1 -2.78411e-06 
-0.123133 0.00313275 -0.0134789 0.0025 1.0026 1.00362 2.50258 0.00498704 150 4 1 3.4564e-07 
-0.120642 0.00534969 -2.59679 0.0025 1.00552 1.00789 2.50546 0.00497254 151 4 1 3.79487e-06 
-0.118161 0.0138194 -5.03442 0.0025 1.01152 1.0162 2.51158 0.00494304 152 4 1 -2.83236e-07 
-0.115698 0.0213551 -1.90131 0.0025 1.01702 1.02378 2.51705 0.0049163 153 4 1 -3.28143e-06 
-0.113244 0.0224858 0.227301 0.0025 1.01898 1.02663 2.51889 0.00490686 154 4 1 -6.03581e-07 
-0.110792 0.0233186 -0.934726 0.0025 1.0199 1.02799 2.5198 0.00490244 155 4 1 1.82244e-07 
-0.108342 0.0249457 -0.40949 0.0025 1.0209 1.02935 2.52082 0.00489763 156 3 1 -9.39e-07 
-0.105894 0.0249243 0.168126 0.0025 1.0209 1.02935 2.52081 0.00489764 157 4 1 -7.29118e-07 
-0.103444 0.0239804 0.569055 0.0025 1.02 1.0281 2.51992 0.00490195 158 4 1 -4.17392e-07 
-0.100992 0.0223962 0.841187 0.0025 1.01858 1.02611 2.51851 0.00490878 159 4 1 -2.42379e-07 
-0.0985356 0.0203852 1.0219 0.0025 1.01683 1.02364 2.51677 0.00491725 160 4 1 -9.7873e-08 
-0.0960747 0.0181252 1.11808 0.0025 1.01489 1.02092 2.51485 0.00492662 161 4 1 1.82182e-08 
-0.093609 0.0157678 1.14416 0.0025 1.0129 1.01812 2.51286 0.00493632 162 4 1 1.04941e-07 
-0.0911384 0.0134349 1.11524 0.0025 1.01095 1.01537 2.51092 0.00494585 163 4 1 1.63622e-07 
-0.0886631 0.0112186 1.04604 0.0025 1.00911 1.01278 2.50909 0.00495488 164 4 1 1.98033e-07 
-0.0861835 0.00918353 0.949786 0.0025 1.00743 1.01042 2.50741 0.00496313 165 4 1 2.12933e-07 
-0.0837 0.00736998 0.837742 0.0025 1.00594 1.00834 2.50593 0.00497047 166 4 1 2.12995e-07 
-0.081213 0.00579786 0.719258 0.0025 1.00466 1.00654 2.50465 0.00497681 167 4 1 2.02385e-07 
-0.0787232 0.0044703 0.601798 0.0025 1.00358 1.00503 2.50357 0.00498216 168 4 1 1.84643e-07 
-0.0762309 0.00337741 0.491018 0.0025 1.0027 1.00379 2.50269 0.00498654 169 4 1 1.62709e-07 
-0.0737366 0.00249986 0.39084 0.0025 1.00199 1.0028 2.50199 0.00499006 170 4 1 1.38963e-07 
-0.0712408 0.00181236 0.303582 0.0025 1.00144 1.00202 2.50144 0.0049928 171 4 1 1.15267e-07 
-0.0687438 0.0012867 0.230152 0.0025 1.00102 1.00143 2.50102 0.0049949 172 4 1 9.29806e-08 
-0.0662459 0.000894382 0.170329 0.0025 1.00071 1.001 2.50071 0.00499646 173 4 1 7.30017e-08 
-0.0637474 0.000608516 0.123068 0.0025 1.00048 1.00068 2.50048 0.00499759 174 4 1 5.5818e-08 
-0.0612483 0.000405135 0.0868179 0.0025 1.00032 1.00045 2.50032 0.0049984 175 4 1 4.15799e-08 
-0.058749 0.00026385 0.0597968 0.0025 1.00021 1.00029 2.50021 0.00499896 176 4 1 3.01833e-08 
-0.0562494 0.000168017 0.0402076 0.0025 1.00013 1.00019 2.50013 0.00499934 177 4 1 2.13541e-08 
-0.0537496 0.00010456 0.0263883 0.0025 1.00008 1.00012 2.50008 0.00499959 178 4 1 1.47244e-08 
-0.0512498 6.35487e-05 0.0168984 0.0025 1.00005 1.00007 2.50005 0.00499975 179 4 1 9.89474e-09 
-0.0487499 3.76905e-05 0.0105539 0.0025 1.00003 1.00004 2.50003 0.00499985 180 4 1 6.4788e-09 
-0.0462499 2.17928e-05 0.00642441 0.0025 1.00002 1.00002 2.50002 0.00499991 181 4 1 4.13203e-09 
-0.04375 1.22695e-05 0.00380847 0.0025 1.00001 1.00001 2.50001 0.00499995 182 4 1 2.56565e-09 
-0.04125 6.71616e-06 0.00219634 0.0025 1.00001 1.00001 2.50001 0.00499997 183 4 1 1.54987e-09 
-0.03875 3.56765e-06 0.00123051 0.0025 1 1 2.5 0.00499999 184 4 1 9.10035e-10 
-0.03625 1.83477e-06 0.000668569 0.0025 1 1 2.5 0.00499999 185 4 1 5.18745e-10 
-0.03375 9.1076e-07 0.000351483 0.0025 1 1 2.5 0.005 186 4 1 2.8661e-10 
-0.03125 4.34623e-07 0.000178272 0.0025 1 1 2.5 0.005 187 4 1 1.53168e-10 
-0.02875 1.98322e-07 8.68932e-05 0.0025 1 1 2.5 0.005 188 4 1 7.8957e-11 
-0.02625 8.5882e-08 4.04845e-05 0.0025 1 1 2.5 0.005 189 4 1 3.91176e-11 
-0.02375 3.49045e-08 1.78931e-05 0.0025 1 1 2.5 0.005 190 4 1 1.85323e-11 
-0.02125 1.30834e-08 7.4164e-06 0.0025 1 1 2.5 0.005 191 4 1 8.33592e-12 
-0.01875 4.38806e-09 2.82966e-06 0.0025 1 1 2.5 0.005 192 4 1 3.52193e-12 
-0.01625 1.23908e-09 9.59911e-07 0.0025 1 1 2.5 0.005 193 4 1 1.37362e-12 
-0.01375 2.49696e-10 2.67918e-07 0.0025 1 1 2.5 0.005 194 4 1 4.79255e-13 
-0.01125 9.69439e-12 5.16356e-08 0.0025 1 1 2.5 0.005 195 4 1 1.44911e-13 
-0.00875 -3.45827e-12 -2.17343e-08 0.0025 1 1 2.5 0.005 196 5 1 2.42931e-14 
-0.00625 1.73777e-11 -5.28132e-09 0.0025 1 1 2.5 0.005 197 4 1 -9.67724e-15 
-0.00375 1.48154e-11 7.78414e-10 0.0025 1 1 2.5 0.005 198 3 1 -2.26912e-15 
-0.00125 5.38076e-12 8.06494e-10 0.0025 1 1 2.5 0.005 199 4 1 1.64952e-15 
0.00125 -5.36994e-12 -8.05585e-10 0.0025 1 1 2.5 0.005 200 5 1 1.6513e-15 
0.00375 -1.48046e-11 -7.77959e-10 0.0025 1 1 2.5 0.005 201 3 1 -2.26628e-15 
0.00625 -1.73669e-11 5.28155e-09 0.0025 1 1 2.5 0.005 202 4 1 -9.67901e-15 
0.00875 3.47009e-12 2.17346e-08 0.0025 1 1 2.5 0.005 203 5 1 2.42881e-14 
0.01125 -9.68334e-12 -5.16352e-08 0.0025 1 1 2.5 0.005 204 4 1 1.4492e-13 
0.01375 -2.49685e-10 -2.67919e-07 0.0025 1 1 2.5 0.005 205 4 1 4.79241e-13 
0.01625 -1.23907e-09 -9.59913e-07 0.0025 1 1 2.5 0.005 206 4 1 1.37363e-12 
0.01875 -4.38806e-09 -2.82966e-06 0.0025 1 1 2.5 0.005 207 4 1 3.52192e-12 
0.02125 -1.30834e-08 -7.4164e-06 0.0025 1 1 2.5 0.005 208 4 1 8.33593e-12 
0.02375 -3.49045e-08 -1.78931e-05 0.0025 1 1 2.5 0.005 209 4 1 1.85324e-11 
0.02625 -8.58819e-08 -4.04845e-05 0.0025 1 1 2.5 0.005 210 4 1 3.91176e-11 
0.02875 -1.98322e-07 -8.68932e-05 0.0025 1 1 2.5 0.005 211 4 1 7.8957e-11 
0.03125 -4.34623e-07 -0.000178272 0.0025 1 1 2.5 0.005 212 4 1 1.53168e-10 
0.03375 -9.1076e-07 -0.000351483 0.0025 1 1 2.5 0.005 213 4 1 2.8661e-10 
0.03625 -1.83477e-06 -0.000668569 0.0025 1 1 2.5 0.00499999 214 4 1 5.18745e-10 
0.03875 -3.56765e-06 -0.00123051 0.0025 1 1 2.5 0.00499999 215 4 1 9.10035e-10 
0.04125 -6.71616e-06 -0.00219634 0.0025 1.00001 1.00001 2.50001 0.00499997 216 4 1 1.54987e-09 
0.04375 -1.22695e-05 -0.00380847 0.0025 1.00001 1.00001 2.50001 0.00499995 217 4 1 2.56565e-09 
0.0462499 -2.17928e-05 -0.00642441 0.0025 1.00002 1.00002 2.50002 0.00499991 218 4 1 4.13203e-09 
