# Time [s]: 0.314065
# Columns: pos [m], vel [m/s], acc [m/s^2], mass [kg], dens [kg/m^3], pres [Pa], ene [J/kg], sml [m], id, neighbor, alpha, gradh, ...additional?
1.29083 -0.673096 0.000401426 0.0025 0.51105 0.432726 2.1525 0.00978378 0 4 1 -0.000134226 
1.29561 -0.673097 0.000424424 0.0025 0.536907 0.426188 1.95004 0.0093126 1 4 1 0.000179252 
1.30015 -0.673099 0.000445077 0.0025 0.548236 0.430857 1.9685 0.00912016 2 3 1 -1.90586e-05 
1.30473 -0.6731 0.000464511 0.0025 0.54597 0.429192 1.96464 0.00915801 3 5 1 3.48581e-06 
1.30931 -0.673102 0.000483696 0.0025 0.546368 0.429346 1.96458 0.00915134 4 4 1 -1.3872e-07 
1.31388 -0.673104 0.00050488 0.0025 0.546378 0.429316 1.96434 0.00915118 5 4 1 1.43681e-07 
1.31846 -0.673106 0.000529692 0.0025 0.5464 0.429314 1.96428 0.00915081 6 4 1 -3.56923e-09 
1.32303 -0.673108 0.000557889 0.0025 0.546412 0.42931 1.96422 0.0091506 7 4 1 8.16814e-09 
1.32761 -0.67311 0.000587809 0.0025 0.546426 0.429308 1.96416 0.00915038 8 4 1 4.69287e-09 
1.33218 -0.673113 0.000618358 0.0025 0.546437 0.429306 1.96412 0.00915019 9 4 1 5.40156e-09 
1.33676 -0.673115 0.000650724 0.0025 0.546447 0.429305 1.96407 0.00915002 10 4 1 -2.32079e-09 
1.34133 -0.673118 0.000688028 0.0025 0.546457 0.429303 1.96403 0.00914985 11 4 1 4.63358e-09 
1.34591 -0.673121 0.000732926 0.0025 0.546466 0.429301 1.96399 0.0091497 12 4 1 2.73706e-09 
1.35048 -0.673125 0.000785164 0.0025 0.546473 0.429299 1.96395 0.00914958 13 4 1 3.44066e-09 
1.35506 -0.673128 0.000841483 0.0025 0.54648 0.429297 1.96392 0.00914947 14 4 1 1.97955e-09 
1.35963 -0.673132 0.000898399 0.0025 0.546485 0.429295 1.96389 0.00914938 15 4 1 -1.72309e-09 
1.36421 -0.673136 0.000955836 0.0025 0.546491 0.429292 1.96386 0.00914929 16 4 1 4.75982e-09 
1.36878 -0.673141 0.00101839 0.0025 0.546495 0.42929 1.96383 0.00914921 17 4 1 1.32761e-09 
1.37336 -0.673146 0.00109235 0.0025 0.546499 0.429287 1.96381 0.00914916 18 4 1 -1.37223e-09 
1.37793 -0.673151 0.00118018 0.0025 0.546502 0.429284 1.96378 0.0091491 19 4 1 2.49342e-09 
1.38251 -0.673156 0.00127701 0.0025 0.546504 0.429281 1.96376 0.00914906 20 4 1 9.46753e-10 
1.38708 -0.673162 0.0013736 0.0025 0.546506 0.429277 1.96374 0.00914903 21 4 1 9.70831e-10 
1.39166 -0.673169 0.00146496 0.0025 0.546507 0.429274 1.96371 0.00914901 22 4 1 8.45442e-10 
1.39623 -0.673176 0.0015578 0.0025 0.546508 0.42927 1.96369 0.009149 23 4 1 -3.92763e-10 
1.4008 -0.673184 0.00166859 0.0025 0.546508 0.429266 1.96367 0.009149 24 3 1 1.21223e-09 
1.40538 -0.673192 0.00181138 0.0025 0.546508 0.429261 1.96365 0.009149 25 4 1 3.99317e-10 
1.40995 -0.673201 0.00198482 0.0025 0.546507 0.429256 1.96364 0.00914902 26 4 1 -7.64275e-10 
1.41453 -0.67321 0.00217115 0.0025 0.546505 0.429251 1.96362 0.00914905 27 4 1 7.90953e-10 
1.4191 -0.67322 0.00235019 0.0025 0.546503 0.429245 1.9636 0.00914909 28 4 1 4.42139e-10 
1.42368 -0.673231 0.00251742 0.0025 0.5465 0.429238 1.96358 0.00914914 29 4 1 -1.18209e-09 
1.42825 -0.673243 0.00269068 0.0025 0.546496 0.429232 1.96356 0.00914919 30 4 1 5.15151e-11 
1.43283 -0.673257 0.00289918 0.0025 0.546492 0.429224 1.96354 0.00914926 31 4 1 1.40516e-09 
1.4374 -0.673271 0.00316383 0.0025 0.546487 0.429216 1.96352 0.00914934 32 4 1 -1.57405e-09 
1.44198 -0.673287 0.00348463 0.0025 0.546482 0.429208 1.9635 0.00914944 33 4 1 -1.70131e-09 
1.44655 -0.673304 0.00384482 0.0025 0.546475 0.429198 1.96348 0.00914955 34 4 1 1.12157e-09 
1.45113 -0.673322 0.00422732 0.0025 0.546468 0.429187 1.96346 0.00914967 35 4 1 -1.29025e-09 
1.4557 -0.673342 0.00462889 0.0025 0.546459 0.429176 1.96344 0.00914982 36 4 1 -2.03767e-09 
1.46027 -0.673364 0.00506079 0.0025 0.546449 0.429163 1.96342 0.00914998 37 4 1 1.65302e-10 
1.46485 -0.673389 0.00553942 0.0025 0.546438 0.429149 1.96339 0.00915017 38 4 1 -1.30912e-09 
1.46943 -0.673416 0.00608112 0.0025 0.546426 0.429134 1.96337 0.00915037 39 4 1 -2.32628e-09 
1.474 -0.673446 0.00670728 0.0025 0.546412 0.429117 1.96334 0.0091506 40 4 1 -1.13857e-09 
1.47858 -0.673479 0.00744589 0.0025 0.546396 0.429098 1.96331 0.00915086 41 4 1 -1.73123e-09 
1.48315 -0.673516 0.00831048 0.0025 0.546379 0.429077 1.96328 0.00915116 42 4 1 -3.13523e-09 
1.48773 -0.673557 0.00926429 0.0025 0.546359 0.429054 1.96324 0.00915149 43 4 1 -2.7536e-09 
1.4923 -0.673602 0.0102172 0.0025 0.546337 0.429028 1.9632 0.00915186 44 4 1 -1.83477e-09 
1.49688 -0.673654 0.0111048 0.0025 0.546312 0.428999 1.96316 0.00915228 45 4 1 -3.15567e-09 
-0.498545 -0.673714 0.0120223 0.0025 0.546284 0.428968 1.96312 0.00915274 46 4 1 -3.78598e-09 
-0.493969 -0.673783 0.0132593 0.0025 0.546254 0.428933 1.96307 0.00915325 47 4 1 -3.39815e-09 
-0.489392 -0.673861 0.0150971 0.0025 0.54622 0.428895 1.96301 0.00915381 48 4 1 -5.16225e-09 
-0.484815 -0.673948 0.0175282 0.0025 0.546182 0.428851 1.96295 0.00915446 49 4 1 -7.41107e-09 
-0.480237 -0.674042 0.0202794 0.0025 0.546138 0.428801 1.96288 0.0091552 50 4 1 -7.87154e-09 
-0.47566 -0.674146 0.0231398 0.0025 0.546087 0.428744 1.9628 0.00915606 51 4 1 -7.18088e-09 
-0.471081 -0.674259 0.0260956 0.0025 0.546029 0.42868 1.96272 0.00915702 52 4 1 -7.86488e-09 
-0.466503 -0.674383 0.0291037 0.0025 0.545964 0.428608 1.96262 0.00915811 53 4 1 -8.18527e-09 
-0.461923 -0.674518 0.0319696 0.0025 0.545893 0.428529 1.96251 0.0091593 54 4 1 -6.23449e-09 
-0.457343 -0.674662 0.0344374 0.0025 0.545817 0.428444 1.9624 0.00916058 55 4 1 -3.60078e-09 
-0.452763 -0.674815 0.0361137 0.0025 0.545736 0.428355 1.96228 0.00916194 56 4 1 -1.45583e-09 
-0.448181 -0.674973 0.0366427 0.0025 0.545654 0.428264 1.96216 0.00916331 57 4 1 2.13371e-09 
-0.443599 -0.67513 0.0361111 0.0025 0.545575 0.428176 1.96204 0.00916465 58 4 1 7.66894e-09 
-0.439017 -0.675279 0.0339984 0.0025 0.5455 0.428094 1.96193 0.0091659 59 4 1 1.27908e-08 
-0.434433 -0.675409 0.0295759 0.0025 0.545436 0.428023 1.96183 0.00916697 60 4 1 1.93407e-08 
-0.42985 -0.675511 0.0225846 0.0025 0.545388 0.42797 1.96176 0.00916778 61 4 1 2.66134e-08 
-0.425266 -0.675566 0.0093971 0.0025 0.545362 0.42794 1.96172 0.00916821 62 4 1 2.09454e-08 
-0.420681 -0.675608 0.0175497 0.0025 0.545355 0.427934 1.9617 0.00916834 63 5 1 9.81363e-08 
-0.416097 -0.675549 -0.0582803 0.0025 0.545429 0.42802 1.96181 0.00916709 64 4 1 2.28006e-07 
-0.411514 -0.675037 -0.158602 0.0025 0.545689 0.428305 1.96218 0.00916273 65 4 1 2.53146e-07 
-0.406935 -0.674205 -0.217111 0.0025 0.546152 0.428819 1.96284 0.00915496 66 4 1 4.20654e-07 
-0.402359 -0.672843 -0.415697 0.0025 0.54694 0.429699 1.96397 0.00914177 67 4 1 8.52604e-07 
-0.397793 -0.670246 -0.783991 0.0025 0.548345 0.431254 1.96598 0.00911834 68 4 1 1.19585e-06 
-0.393241 -0.666004 -1.16042 0.0025 0.550535 0.433662 1.96912 0.00908208 69 4 1 1.23383e-06 
-0.388711 -0.660434 -1.41616 0.0025 0.553412 0.43683 1.97323 0.00903485 70 4 1 1.14412e-06 
-0.384206 -0.654009 -1.59156 0.0025 0.556793 0.440568 1.97804 0.00897999 71 4 1 1.21445e-06 
-0.379731 -0.646798 -1.79758 0.0025 0.560617 0.444811 1.98346 0.00891874 72 4 1 1.40546e-06 
-0.375287 -0.638773 -2.01369 0.0025 0.564907 0.449586 1.98951 0.00885101 73 4 1 1.63376e-06 
-0.370879 -0.629846 -2.26611 0.0025 0.569695 0.454928 1.99624 0.00877663 74 4 1 1.80065e-06 
-0.36651 -0.620069 -2.47863 0.0025 0.574962 0.460824 2.0036 0.00869622 75 4 1 1.83007e-06 
-0.362183 -0.609631 -2.63861 0.0025 0.580611 0.467168 2.01145 0.00861162 76 4 1 1.74089e-06 
-0.357899 -0.59883 -2.7145 0.0025 0.586499 0.473807 2.01959 0.00852516 77 4 1 1.59584e-06 
-0.353658 -0.587962 -2.74196 0.0025 0.592488 0.480589 2.02781 0.00843899 78 4 1 1.45249e-06 
-0.349459 -0.577203 -2.72697 0.0025 0.59848 0.487404 2.03599 0.0083545 79 4 1 1.35172e-06 
-0.345303 -0.566618 -2.71526 0.0025 0.604425 0.494193 2.04405 0.00827233 80 4 1 1.25214e-06 
-0.341187 -0.556275 -2.6716 0.0025 0.61029 0.500917 2.05196 0.00819283 81 4 1 1.15174e-06 
-0.33711 -0.546217 -2.62887 0.0025 0.616046 0.507543 2.05968 0.00811628 82 4 1 1.09553e-06 
-0.33307 -0.536396 -2.59245 0.0025 0.621698 0.514074 2.06721 0.00804249 83 4 1 1.05612e-06 
-0.329067 -0.526817 -2.56383 0.0025 0.627257 0.52052 2.07458 0.00797121 84 4 1 9.97006e-07 
-0.325099 -0.517454 -2.51856 0.0025 0.632722 0.52688 2.08179 0.00790237 85 4 1 9.71973e-07 
-0.321165 -0.508314 -2.50298 0.0025 0.638106 0.533169 2.08886 0.00783568 86 4 1 9.84705e-07 
-0.317263 -0.499294 -2.49678 0.0025 0.643448 0.539428 2.09583 0.00777064 87 4 1 9.78638e-07 
-0.313394 -0.49039 -2.49087 0.0025 0.648763 0.545678 2.10274 0.00770698 88 4 1 1.02183e-06 
-0.309556 -0.481532 -2.52653 0.0025 0.654092 0.551965 2.10963 0.00764419 89 4 1 1.07033e-06 
-0.30575 -0.472643 -2.55909 0.0025 0.659474 0.558335 2.11655 0.0075818 90 4 1 1.12992e-06 
-0.301974 -0.463651 -2.62996 0.0025 0.664943 0.56483 2.12356 0.00751944 91 4 1 1.18374e-06 
-0.29823 -0.454514 -2.69037 0.0025 0.670524 0.571476 2.13067 0.00745685 92 4 1 1.18077e-06 
-0.294517 -0.445296 -2.73475 0.0025 0.676199 0.578259 2.13786 0.00739428 93 4 1 1.21512e-06 
-0.290836 -0.436001 -2.80763 0.0025 0.681973 0.585184 2.14514 0.00733167 94 4 1 1.23439e-06 
-0.287185 -0.426553 -2.85796 0.0025 0.687847 0.59225 2.15252 0.00726906 95 4 1 1.17664e-06 
-0.283566 -0.417123 -2.86955 0.0025 0.69377 0.599401 2.15991 0.007207 96 4 1 1.15935e-06 
-0.279978 -0.407722 -2.9056 0.0025 0.699725 0.606616 2.16731 0.00714566 97 4 1 1.14724e-06 
-0.276421 -0.398309 -2.91785 0.0025 0.705707 0.613887 2.1747 0.00708509 98 4 1 1.09825e-06 
-0.272893 -0.389007 -2.91805 0.0025 0.711688 0.621183 2.18205 0.00702555 99 4 1 1.10428e-06 
-0.269395 -0.379727 -2.94967 0.0025 0.717678 0.628514 2.18938 0.00696691 100 4 1 1.07548e-06 
-0.265926 -0.370511 -2.9392 0.0025 0.723668 0.635869 2.19667 0.00690925 101 4 1 1.0328e-06 
-0.262486 -0.361407 -2.94278 0.0025 0.729637 0.643225 2.2039 0.00685272 102 4 1 1.03758e-06 
-0.259073 -0.352335 -2.95793 0.0025 0.735602 0.650598 2.21109 0.00679715 103 4 1 1.00777e-06 
-0.255688 -0.343361 -2.94888 0.0025 0.741554 0.657978 2.21823 0.0067426 104 4 1 9.64968e-07 
-0.25233 -0.334492 -2.93705 0.0025 0.747474 0.665346 2.22529 0.00668919 105 4 1 9.9993e-07 
-0.248999 -0.325676 -2.98034 0.0025 0.7534 0.672743 2.23233 0.00663658 106 4 1 9.86011e-07 
-0.245694 -0.316876 -2.97009 0.0025 0.759333 0.680169 2.23935 0.00658472 107 4 1 9.10947e-07 
-0.242414 -0.308238 -2.94724 0.0025 0.765229 0.687574 2.24629 0.006534 108 4 1 9.43986e-07 
-0.23916 -0.299635 -2.98898 0.0025 0.77112 0.694997 2.25319 0.00648407 109 4 1 9.4211e-07 
-0.23593 -0.291052 -2.98355 0.0025 0.777019 0.70245 2.26007 0.00643485 110 4 1 8.6782e-07 
-0.232725 -0.282582 -2.95754 0.0025 0.78288 0.709879 2.26687 0.00638667 111 4 1 8.54184e-07 
-0.229543 -0.274256 -2.95634 0.0025 0.788708 0.71729 2.2736 0.00633948 112 4 1 9.2843e-07 
-0.226385 -0.265878 -3.02505 0.0025 0.794566 0.724759 2.28034 0.00629275 113 4 1 8.83058e-07 
-0.22325 -0.257523 -2.98643 0.0025 0.800429 0.732254 2.28706 0.00624665 114 4 1 7.80208e-07 
-0.220138 -0.24939 -2.95121 0.0025 0.80623 0.739697 2.29367 0.00620171 115 4 1 8.6359e-07 
-0.217049 -0.241258 -3.02393 0.0025 0.81204 0.747172 2.30027 0.00615733 116 4 1 8.75019e-07 
-0.213981 -0.233091 -3.01888 0.0025 0.81788 0.754701 2.30687 0.00611337 117 4 1 7.65465e-07 
-0.210935 -0.225064 -2.97415 0.0025 0.82367 0.762192 2.31339 0.00607039 118 4 1 7.47413e-07 
-0.207911 -0.217183 -2.96781 0.0025 0.829412 0.769643 2.31983 0.00602837 119 4 1 8.20542e-07 
-0.204907 -0.209301 -3.02463 0.0025 0.835173 0.777139 2.32626 0.00598679 120 4 1 8.37949e-07 
-0.201924 -0.201344 -3.04629 0.0025 0.840972 0.7847 2.33271 0.0059455 121 4 1 7.27576e-07 
-0.198961 -0.19354 -2.98187 0.0025 0.84673 0.792229 2.33908 0.00590507 122 4 1 6.78244e-07 
-0.196018 -0.185916 -2.96222 0.0025 0.852418 0.799695 2.34535 0.00586567 123 4 1 8.08387e-07 
-0.193095 -0.178239 -3.06884 0.0025 0.85815 0.807235 2.35165 0.00582649 124 4 1 8.17852e-07 
-0.190192 -0.170449 -3.07046 0.0025 0.863938 0.81486 2.35798 0.00578745 125 4 1 6.20275e-07 
-0.187308 -0.162904 -2.94755 0.0025 0.869629 0.822384 2.36418 0.00574958 126 4 1 5.91806e-07 
-0.184442 -0.155608 -2.93602 0.0025 0.875219 0.829802 2.37024 0.00571286 127 4 1 8.18064e-07 
-0.181595 -0.148168 -3.10568 0.0025 0.880899 0.837354 2.37639 0.00567602 128 4 1 8.26706e-07 
-0.178766 -0.140498 -3.1074 0.0025 0.886679 0.845045 2.38262 0.00563902 129 4 1 5.43345e-07 
-0.175956 -0.133174 -2.92889 0.0025 0.89233 0.852592 2.38868 0.00560331 130 4 1 5.19564e-07 
-0.173163 -0.12614 -2.92333 0.0025 0.897848 0.859995 2.39457 0.00556887 131 4 1 8.23599e-07 
-0.170387 -0.118875 -3.14763 0.0025 0.903496 0.86758 2.40058 0.00553406 132 4 1 8.26424e-07 
-0.167629 -0.11135 -3.145 0.0025 0.909273 0.875341 2.40672 0.0054989 133 4 1 4.51269e-07 
-0.164888 -0.104211 -2.89798 0.0025 0.91487 0.88289 2.41263 0.00546526 134 4 1 4.03633e-07 
-0.162163 -0.0975021 -2.8636 0.0025 0.920266 0.890204 2.4183 0.00543321 135 4 1 7.6359e-07 
-0.159455 -0.0905692 -3.10828 0.0025 0.925786 0.897694 2.4241 0.00540082 136 4 1 8.583e-07 
-0.156763 -0.0832711 -3.18752 0.0025 0.931506 0.905454 2.43008 0.00536765 137 4 1 4.89686e-07 
-0.154087 -0.0762348 -2.94507 0.0025 0.937107 0.913078 2.43592 0.00533557 138 4 1 3.34138e-07 
-0.151427 -0.0696679 -2.84465 0.0025 0.942472 0.920416 2.44148 0.0053052 139 4 1 6.44385e-07 
-0.148782 -0.0630275 -3.04906 0.0025 0.947886 0.927836 2.44708 0.00527489 140 4 1 8.33016e-07 
-0.146152 -0.0559848 -3.20072 0.0025 0.953511 0.935541 2.45288 0.00524378 141 4 1 4.8632e-07 
-0.143538 -0.0490979 -2.94058 0.0025 0.959048 0.943143 2.45857 0.0052135 142 4 1 1.86519e-07 
-0.140938 -0.04286 -2.71446 0.0025 0.964262 0.950341 2.4639 0.00518531 143 4 1 5.91867e-07 
-0.138353 -0.0366182 -3.04238 0.0025 0.969514 0.957615 2.46926 0.00515722 144 4 1 9.58888e-07 
-0.135781 -0.0296055 -3.32651 0.0025 0.9751 0.965322 2.47496 0.00512768 145 4 1 8.38462e-08 
-0.133225 -0.0231283 -2.49205 0.0025 0.980309 0.972517 2.48024 0.00510043 146 4 1 -4.47614e-07 
-0.130681 -0.0183547 -2.05427 0.0025 0.984747 0.978745 2.48467 0.00507745 147 4 1 1.36314e-06 
-0.128147 -0.0124404 -3.72481 0.0025 0.989956 0.986053 2.48994 0.00505073 148 4 1 2.12747e-06 
-0.12563 -0.00356366 -4.29301 0.0025 0.996467 0.995025 2.49657 0.00501773 149 4 1 -1.43157e-06 
-0.12313 0.00254202 -1.2003 0.0025 1.00129 1.0017 2.50136 0.00499355 150 4 1 -2.34886e-06 
-0.120636 0.00362644 -0.35271 0.0025 1.00359 1.00508 2.50352 0.00498213 151 4 1 2.21143e-06 
-0.118147 0.00802335 -4.02935 0.0025 1.00758 1.01077 2.50756 0.00496237 152 4 1 3.06465e-06 
-0.115674 0.0174371 -4.34378 0.0025 1.01402 1.01963 2.51409 0.00493086 153 4 1 -2.18421e-06 
-0.113217 0.0224199 -0.611134 0.0025 1.01819 1.02544 2.51817 0.00491066 154 4 1 -2.5628e-06 
-0.110763 0.0226389 -0.0991246 0.0025 1.01938 1.02724 2.51928 0.00490493 155 4 1 1.01098e-07 
-0.108312 0.0241063 -0.896485 0.0025 1.02035 1.0286 2.52026 0.00490028 156 4 1 -3.10038e-07 
-0.105863 0.0249907 -0.0861436 0.0025 1.02098 1.02946 2.52089 0.00489726 157 3 1 -9.37122e-07 
-0.103414 0.0245444 0.347679 0.0025 1.02054 1.02886 2.52045 0.00489935 158 4 1 -5.44114e-07 
-0.100964 0.0233364 0.674751 0.0025 1.01943 1.0273 2.51935 0.00490471 159 4 1 -3.44877e-07 
-0.0985097 0.0215829 0.913342 0.0025 1.01787 1.02511 2.5178 0.0049122 160 4 1 -1.84103e-07 
-0.0960515 0.0194729 1.06003 0.0025 1.01605 1.02254 2.51599 0.00492103 161 4 1 -5.21889e-08 
-0.0935886 0.0171736 1.12884 0.0025 1.01409 1.01979 2.51404 0.00493053 162 4 1 5.2605e-08 
-0.0911209 0.014825 1.1331 0.0025 1.01211 1.017 2.51208 0.00494017 163 4 1 1.28499e-07 
-0.0886485 0.0125377 1.088 0.0025 1.0102 1.01432 2.51018 0.00494951 164 4 1 1.77681e-07 
-0.0861714 0.0103933 1.00775 0.0025 1.00843 1.01183 2.50841 0.00495822 165 4 1 2.04319e-07 
-0.0836902 0.00844669 0.90489 0.0025 1.00682 1.00958 2.50681 0.00496611 166 4 1 2.13196e-07 
-0.0812053 0.00673017 0.789998 0.0025 1.00542 1.0076 2.50541 0.00497305 167 4 1 2.08856e-07 
-0.0787172 0.00525682 0.671719 0.0025 1.00422 1.00592 2.50421 0.00497899 168 4 1 1.9526e-07 
-0.0762263 0.00402439 0.556812 0.0025 1.00322 1.00452 2.50322 0.00498395 169 4 1 1.75736e-07 
-0.0737332 0.00301905 0.450234 0.0025 1.00241 1.00338 2.50241 0.00498798 170 4 1 1.53011e-07 
-0.0712383 0.00221894 0.355252 0.0025 1.00177 1.00248 2.50176 0.00499118 171 4 1 1.29256e-07 
-0.0687421 0.00159748 0.273596 0.0025 1.00127 1.00178 2.50127 0.00499366 172 4 1 1.06124e-07 
-0.0662447 0.00112628 0.205703 0.0025 1.00089 1.00125 2.50089 0.00499554 173 4 1 8.47801e-08 
-0.0637465 0.000777474 0.151004 0.0025 1.00062 1.00086 2.50061 0.00499692 174 4 1 6.59492e-08 
-0.0612478 0.000525336 0.108242 0.0025 1.00042 1.00058 2.50041 0.00499792 175 4 1 4.9977e-08 
-0.0587486 0.000347349 0.075766 0.0025 1.00027 1.00039 2.50027 0.00499863 176 4 1 3.69073e-08 
-0.0562491 0.000224653 0.0517848 0.0025 1.00018 1.00025 2.50018 0.00499911 177 4 1 2.65656e-08 
-0.0537495 0.000142061 0.0345558 0.0025 1.00011 1.00016 2.50011 0.00499944 178 4 1 1.86392e-08 
-0.0512497 8.77826e-05 0.0225073 0.0025 1.00007 1.0001 2.50007 0.00499965 179 4 1 1.27476e-08 
-0.0487498 5.29682e-05 0.0143037 0.0025 1.00004 1.00006 2.50004 0.00499979 180 4 1 8.49716e-09 
-0.0462499 3.11836e-05 0.00886495 0.0025 1.00002 1.00003 2.50002 0.00499988 181 4 1 5.51892e-09 
-0.0437499 1.78933e-05 0.00535433 0.0025 1.00001 1.00002 2.50001 0.00499993 182 4 1 3.49144e-09 
-0.04125 9.99419e-06 0.00314881 0.0025 1.00001 1.00001 2.50001 0.00499996 183 4 1 2.15023e-09 
-0.03875 5.42513e-06 0.00180096 0.0025 1 1.00001 2.5 0.00499998 184 4 1 1.28816e-09 
-0.03625 2.85635e-06 0.00100032 0.0025 1 1 2.5 0.00499999 185 4 1 7.49934e-10 
-0.03375 1.45498e-06 0.000538566 0.0025 1 1 2.5 0.00499999 186 4 1 4.23715e-10 
-0.03125 7.14712e-07 0.000280386 0.0025 1 1 2.5 0.005 187 4 1 2.31941e-10 
-0.02875 3.37104e-07 0.000140707 0.0025 1 1 2.5 0.005 188 4 1 1.22734e-10 
-0.02625 1.51778e-07 6.77764e-05 0.0025 1 1 2.5 0.005 189 4 1 6.25963e-11 
-0.02375 6.46924e-08 3.11534e-05 0.0025 1 1 2.5 0.005 190 4 1 3.06484e-11 
-0.02125 2.57812e-08 1.35498e-05 0.0025 1 1 2.5 0.005 191 4 1 1.43269e-11 
-0.01875 9.41622e-09 5.50475e-06 0.0025 1 1 2.5 0.005 192 4 1 6.34395e-12 
-0.01625 3.04102e-09 2.0446e-06 0.0025 1 1 2.5 0.005 193 4 1 2.62842e-12 
-0.01375 8.04862e-10 6.65626e-07 0.0025 1 1 2.5 0.005 194 4 1 9.98969e-13 
-0.01125 1.37668e-10 1.71393e-07 0.0025 1 1 2.5 0.005 195 4 1 3.37722e-13 
-0.00875 -7.19368e-12 2.03973e-08 0.0025 1 1 2.5 0.005 196 4 1 9.437e-14 
-0.00625 3.01541e-12 -1.82276e-08 0.0025 1 1 2.5 0.005 197 5 1 9.35252e-15 
-0.00375 1.30639e-11 -3.85592e-09 0.0025 1 1 2.5 0.005 198 4 1 -8.12435e-15 
-0.00125 5.78656e-12 -3.48962e-10 0.0025 1 1 2.5 0.005 199 3 1 -9.12337e-16 
0.00125 -5.77483e-12 3.49303e-10 0.0025 1 1 2.5 0.005 200 4 1 -9.11982e-16 
0.00375 -1.30525e-11 3.85683e-09 0.0025 1 1 2.5 0.005 201 4 1 -8.12292e-15 
0.00625 -3.00414e-12 1.82279e-08 0.0025 1 1 2.5 0.005 202 5 1 9.35216e-15 
0.00875 7.20552e-12 -2.03972e-08 0.0025 1 1 2.5 0.005 203 4 1 9.43654e-14 
0.01125 -1.37656e-10 -1.71393e-07 0.0025 1 1 2.5 0.005 204 4 1 3.37731e-13 
0.01375 -8.04852e-10 -6.65627e-07 0.0025 1 1 2.5 0.005 205 4 1 9.98955e-13 
0.01625 -3.04102e-09 -2.0446e-06 0.0025 1 1 2.5 0.005 206 4 1 2.62844e-12 
0.01875 -9.41621e-09 -5.50475e-06 0.0025 1 1 2.5 0.005 207 4 1 6.34393e-12 
0.02125 -2.57812e-08 -1.35498e-05 0.0025 1 1 2.5 0.005 208 4 1 1.43269e-11 
0.02375 -6.46924e-08 -3.11534e-05 0.0025 1 1 2.5 0.005 209 4 1 3.06484e-11 
0.02625 -1.51778e-07 -6.77764e-05 0.0025 1 1 2.5 0.005 210 4 1 6.25962e-11 
0.02875 -3.37104e-07 -0.000140707 0.0025 1 1 2.5 0.005 211 4 1 1.22734e-10 
0.03125 -7.14712e-07 -0.000280386 0.0025 1 1 2.5 0.005 212 4 1 2.31941e-10 
0.03375 -1.45498e-06 -0.000538566 0.0025 1 1 2.5 0.00499999 213 4 1 4.23715e-10 
0.03625 -2.85635e-06 -0.00100032 0.0025 1 1 2.5 0.00499999 214 4 1 7.49934e-10 
0.03875 -5.42513e-06 -0.00180096 0.0025 1 1.00001 2.5 0.00499998 215 4 1 1.28816e-09 
0.04125 -9.99419e-06 -0.00314881 0.0025 1.00001 1.00001 2.50001 0.00499996 216 4 1 2.15023e-09 
0.0437499 -1.78933e-05 -0.00535433 0.0025 1.00001 1.00002 2.50001 0.00499993 217 4 1 3.49144e-09 
