# Time [s]: 0.317771
# Columns: pos [m], vel [m/s], acc [m/s^2], mass [kg], dens [kg/m^3], pres [Pa], ene [J/kg], sml [m], id, neighbor, alpha, gradh, ...additional?
1.28834 -0.673095 0.00038203 0.0025 0.511051 0.432727 2.1525 0.00978377 0 4 1 -0.000134226 
1.29312 -0.673096 0.000401183 0.0025 0.536907 0.426189 1.95004 0.00931259 1 4 1 0.000179252 
1.29765 -0.673097 0.000418318 0.0025 0.548237 0.430858 1.9685 0.00912015 2 3 1 -1.90586e-05 
1.30224 -0.673099 0.000435423 0.0025 0.545971 0.429193 1.96464 0.00915799 3 5 1 3.4858e-06 
1.30681 -0.6731 0.000454111 0.0025 0.546369 0.429347 1.96458 0.00915133 4 4 1 -1.38718e-07 
1.31139 -0.673102 0.000475827 0.0025 0.546379 0.429317 1.96434 0.00915116 5 4 1 1.43681e-07 
1.31596 -0.673104 0.000500465 0.0025 0.546401 0.429315 1.96428 0.00915079 6 4 1 -3.56726e-09 
1.32054 -0.673106 0.000526643 0.0025 0.546413 0.429311 1.96422 0.00915058 7 4 1 8.17417e-09 
1.32511 -0.673108 0.000553288 0.0025 0.546427 0.429309 1.96417 0.00915036 8 4 1 4.70137e-09 
1.32969 -0.67311 0.000581161 0.0025 0.546438 0.429308 1.96412 0.00915017 9 4 1 5.40872e-09 
1.33426 -0.673113 0.000612773 0.0025 0.546448 0.429306 1.96408 0.00915 10 4 1 -2.31733e-09 
1.33884 -0.673116 0.000650511 0.0025 0.546458 0.429304 1.96403 0.00914983 11 4 1 4.63532e-09 
1.34341 -0.673119 0.000694511 0.0025 0.546467 0.429303 1.96399 0.00914968 12 4 1 2.74238e-09 
1.34799 -0.673122 0.000742326 0.0025 0.546475 0.429301 1.96395 0.00914955 13 4 1 3.45367e-09 
1.35256 -0.673125 0.000791053 0.0025 0.546481 0.429299 1.96392 0.00914944 14 4 1 1.99878e-09 
1.35714 -0.673129 0.000840393 0.0025 0.546487 0.429297 1.96389 0.00914935 15 4 1 -1.70466e-09 
1.36171 -0.673133 0.000893945 0.0025 0.546493 0.429294 1.96386 0.00914925 16 4 1 4.77027e-09 
1.36629 -0.673137 0.000956988 0.0025 0.546497 0.429292 1.96383 0.00914918 17 4 1 1.32986e-09 
1.37086 -0.673142 0.00103191 0.0025 0.546501 0.429289 1.96381 0.00914912 18 4 1 -1.36898e-09 
1.37544 -0.673147 0.00111505 0.0025 0.546504 0.429287 1.96378 0.00914906 19 4 1 2.51013e-09 
1.38001 -0.673152 0.00119876 0.0025 0.546507 0.429284 1.96376 0.00914902 20 4 1 9.81042e-10 
1.38459 -0.673158 0.00127832 0.0025 0.546509 0.42928 1.96374 0.00914898 21 4 1 1.01145e-09 
1.38916 -0.673164 0.00135843 0.0025 0.54651 0.429277 1.96372 0.00914896 22 4 1 8.72185e-10 
1.39373 -0.67317 0.00145237 0.0025 0.546511 0.429273 1.9637 0.00914895 23 4 1 -3.91298e-10 
1.39831 -0.673178 0.00157246 0.0025 0.546512 0.429269 1.96368 0.00914894 24 3 1 1.20005e-09 
1.40288 -0.673185 0.00171891 0.0025 0.546511 0.429265 1.96366 0.00914894 25 4 1 4.03388e-10 
1.40746 -0.673194 0.00187771 0.0025 0.546511 0.42926 1.96364 0.00914895 26 4 1 -7.19148e-10 
1.41203 -0.673202 0.00203119 0.0025 0.546509 0.429255 1.96362 0.00914898 27 4 1 8.74244e-10 
1.41661 -0.673212 0.00217342 0.0025 0.546507 0.42925 1.9636 0.00914901 28 4 1 5.3223e-10 
1.42118 -0.673222 0.0023174 0.0025 0.546505 0.429244 1.96359 0.00914905 29 4 1 -1.12124e-09 
1.42576 -0.673234 0.00248761 0.0025 0.546502 0.429238 1.96357 0.0091491 30 4 1 7.12871e-11 
1.43033 -0.673246 0.00270354 0.0025 0.546498 0.429231 1.96355 0.00914916 31 4 1 1.40608e-09 
1.43491 -0.67326 0.00296766 0.0025 0.546494 0.429223 1.96353 0.00914924 32 4 1 -1.55249e-09 
1.43948 -0.673274 0.00326675 0.0025 0.546489 0.429215 1.96351 0.00914932 33 4 1 -1.63117e-09 
1.44405 -0.67329 0.00358472 0.0025 0.546483 0.429206 1.96349 0.00914942 34 4 1 1.23967e-09 
1.44863 -0.673307 0.00391541 0.0025 0.546476 0.429196 1.96347 0.00914954 35 4 1 -1.14555e-09 
1.4532 -0.673326 0.0042654 0.0025 0.546468 0.429186 1.96345 0.00914967 36 4 1 -1.88641e-09 
1.45778 -0.673346 0.00464789 0.0025 0.546459 0.429174 1.96343 0.00914982 37 4 1 3.16689e-10 
1.46235 -0.673369 0.00507776 0.0025 0.546449 0.429161 1.96341 0.00914998 38 4 1 -1.15792e-09 
1.46693 -0.673394 0.00557357 0.0025 0.546438 0.429147 1.96338 0.00915017 39 4 1 -2.17753e-09 
1.4715 -0.673422 0.00615691 0.0025 0.546425 0.429131 1.96336 0.00915038 40 4 1 -9.79467e-10 
1.47608 -0.673452 0.00683539 0.0025 0.546411 0.429114 1.96333 0.00915062 41 4 1 -1.50106e-09 
1.48065 -0.673486 0.00757521 0.0025 0.546395 0.429095 1.9633 0.00915088 42 4 1 -2.731e-09 
1.48523 -0.673524 0.00830099 0.0025 0.546378 0.429074 1.96327 0.00915118 43 4 1 -2.12187e-09 
1.48981 -0.673567 0.00896047 0.0025 0.546358 0.429051 1.96323 0.00915151 44 4 1 -1.10347e-09 
1.49438 -0.673616 0.00963002 0.0025 0.546336 0.429026 1.9632 0.00915188 45 4 1 -2.63881e-09 
1.49896 -0.673673 0.0105446 0.0025 0.546312 0.428998 1.96316 0.00915228 46 4 1 -3.72976e-09 
-0.496466 -0.673737 0.0119511 0.0025 0.546285 0.428967 1.96311 0.00915272 47 4 1 -3.65895e-09 
-0.49189 -0.673808 0.0138912 0.0025 0.546255 0.428933 1.96306 0.00915323 48 4 1 -5.27144e-09 
-0.487313 -0.673885 0.0161849 0.0025 0.54622 0.428893 1.96301 0.00915382 49 4 1 -7.08409e-09 
-0.482736 -0.67397 0.0186565 0.0025 0.546179 0.428847 1.96294 0.00915451 50 4 1 -7.30621e-09 
-0.478158 -0.674063 0.0212824 0.0025 0.546132 0.428795 1.96287 0.00915529 51 4 1 -6.72197e-09 
-0.47358 -0.674166 0.0240733 0.0025 0.546079 0.428735 1.96279 0.00915618 52 4 1 -7.63125e-09 
-0.469002 -0.674279 0.026946 0.0025 0.546019 0.428668 1.9627 0.00915719 53 4 1 -8.2062e-09 
-0.464423 -0.674403 0.0297476 0.0025 0.545953 0.428594 1.9626 0.0091583 54 4 1 -6.6222e-09 
-0.459844 -0.674539 0.0322635 0.0025 0.545881 0.428514 1.96249 0.00915951 55 4 1 -4.56426e-09 
-0.455264 -0.674684 0.0343029 0.0025 0.545804 0.428429 1.96238 0.0091608 56 4 1 -3.53154e-09 
-0.450683 -0.674838 0.0358476 0.0025 0.545724 0.42834 1.96226 0.00916215 57 4 1 -1.4026e-09 
-0.446102 -0.674995 0.0366183 0.0025 0.545643 0.428251 1.96214 0.0091635 58 4 1 3.43202e-09 
-0.44152 -0.675149 0.0358254 0.0025 0.545564 0.428163 1.96202 0.00916483 59 4 1 8.28605e-09 
-0.436937 -0.675292 0.0330593 0.0025 0.545492 0.428083 1.96191 0.00916604 60 4 1 1.35947e-08 
-0.432353 -0.675417 0.0279614 0.0025 0.545431 0.428016 1.96182 0.00916707 61 4 1 2.20916e-08 
-0.42777 -0.675513 0.0193163 0.0025 0.545388 0.427968 1.96176 0.00916779 62 4 1 2.74922e-08 
-0.423186 -0.675563 0.00816151 0.0025 0.545367 0.427945 1.96172 0.00916813 63 4 1 2.03672e-08 
-0.418602 -0.675599 0.0156728 0.0025 0.545365 0.427946 1.96172 0.00916817 64 5 1 1.1814e-07 
-0.414018 -0.675492 -0.0766137 0.0025 0.545462 0.428055 1.96185 0.00916655 65 4 1 2.40806e-07 
-0.409435 -0.674906 -0.16758 0.0025 0.545753 0.428375 1.96227 0.00916166 66 4 1 2.66593e-07 
-0.404856 -0.674014 -0.241135 0.0025 0.546257 0.428936 1.96299 0.0091532 67 4 1 4.65039e-07 
-0.400282 -0.672519 -0.456773 0.0025 0.547118 0.429895 1.96422 0.0091388 68 4 1 8.96109e-07 
-0.395717 -0.669722 -0.833971 0.0025 0.548619 0.431555 1.96637 0.00911379 69 4 1 1.20859e-06 
-0.391168 -0.665307 -1.19624 0.0025 0.5509 0.434063 1.96964 0.00907606 70 4 1 1.20928e-06 
-0.386641 -0.659608 -1.43207 0.0025 0.553837 0.437298 1.97383 0.00902793 71 4 1 1.13697e-06 
-0.38214 -0.653113 -1.61272 0.0025 0.557261 0.441085 1.9787 0.00897246 72 4 1 1.21454e-06 
-0.377668 -0.645842 -1.80848 0.0025 0.561119 0.445368 1.98417 0.00891076 73 4 1 1.40037e-06 
-0.373229 -0.637802 -2.02681 0.0025 0.565433 0.45017 1.99025 0.00884278 74 4 1 1.6125e-06 
-0.368825 -0.628862 -2.26206 0.0025 0.570227 0.455522 1.99698 0.00876844 75 4 1 1.75912e-06 
-0.364461 -0.61911 -2.46676 0.0025 0.575476 0.461399 2.00432 0.00868846 76 4 1 1.79012e-06 
-0.360137 -0.608733 -2.61928 0.0025 0.58109 0.467706 2.01211 0.00860452 77 4 1 1.69857e-06 
-0.355856 -0.598043 -2.6901 0.0025 0.586929 0.474291 2.02018 0.00851893 78 4 1 1.55195e-06 
-0.351618 -0.587283 -2.71201 0.0025 0.592858 0.481008 2.02831 0.00843372 79 4 1 1.41962e-06 
-0.347422 -0.576664 -2.70137 0.0025 0.598788 0.487754 2.0364 0.00835021 80 4 1 1.31687e-06 
-0.343267 -0.566204 -2.6826 0.0025 0.604668 0.49447 2.04438 0.00826901 81 4 1 1.21337e-06 
-0.339153 -0.555975 -2.6388 0.0025 0.610462 0.501115 2.05219 0.00819051 82 4 1 1.13004e-06 
-0.335077 -0.546024 -2.60232 0.0025 0.616154 0.507667 2.05982 0.00811486 83 4 1 1.07179e-06 
-0.331038 -0.536318 -2.56179 0.0025 0.621743 0.514126 2.06727 0.00804191 84 4 1 1.03421e-06 
-0.327034 -0.526827 -2.5382 0.0025 0.627242 0.520503 2.07456 0.0079714 85 4 1 9.83171e-07 
-0.323066 -0.517567 -2.49464 0.0025 0.632653 0.526799 2.0817 0.00790323 86 4 1 9.531e-07 
-0.319131 -0.508515 -2.47773 0.0025 0.637985 0.533027 2.0887 0.00783717 87 4 1 9.68485e-07 
-0.315229 -0.499585 -2.47498 0.0025 0.643276 0.539226 2.09561 0.00777271 88 4 1 9.60481e-07 
-0.311358 -0.490782 -2.46633 0.0025 0.648541 0.545415 2.10245 0.00770962 89 4 1 9.90323e-07 
-0.307519 -0.481998 -2.49448 0.0025 0.653811 0.551632 2.10927 0.00764747 90 4 1 1.04137e-06 
-0.303711 -0.473203 -2.5283 0.0025 0.659129 0.557925 2.11611 0.00758577 91 4 1 1.10315e-06 
-0.299933 -0.464319 -2.59582 0.0025 0.664531 0.564339 2.12303 0.0075241 92 4 1 1.16072e-06 
-0.296186 -0.455296 -2.66041 0.0025 0.670045 0.570904 2.13006 0.00746218 93 4 1 1.15041e-06 
-0.292471 -0.446183 -2.6955 0.0025 0.675649 0.5776 2.13716 0.0074003 94 4 1 1.17816e-06 
-0.288786 -0.437002 -2.76745 0.0025 0.681345 0.584429 2.14435 0.00733843 95 4 1 1.21352e-06 
-0.285132 -0.427678 -2.82402 0.0025 0.687144 0.591402 2.15164 0.00727649 96 4 1 1.15687e-06 
-0.281509 -0.418347 -2.83394 0.0025 0.692997 0.598465 2.15895 0.00721504 97 4 1 1.13297e-06 
-0.277917 -0.409056 -2.86863 0.0025 0.69888 0.60559 2.16626 0.0071543 98 4 1 1.12683e-06 
-0.274355 -0.399745 -2.88492 0.0025 0.704793 0.612773 2.17357 0.00709428 99 4 1 1.07685e-06 
-0.270823 -0.39054 -2.88213 0.0025 0.710705 0.619982 2.18085 0.00703527 100 4 1 1.07531e-06 
-0.267319 -0.381364 -2.90961 0.0025 0.716622 0.62722 2.18809 0.00697718 101 4 1 1.05669e-06 
-0.263845 -0.372229 -2.90646 0.0025 0.722542 0.634485 2.1953 0.00692001 102 4 1 1.01551e-06 
-0.260399 -0.363216 -2.90686 0.0025 0.728445 0.641753 2.20246 0.00686394 103 4 1 1.01147e-06 
-0.256981 -0.354242 -2.91827 0.0025 0.734339 0.649035 2.20957 0.00680884 104 4 1 1.00066e-06 
-0.25359 -0.345343 -2.9244 0.0025 0.740228 0.656332 2.21664 0.00675467 105 4 1 9.50557e-07 
-0.250226 -0.336563 -2.90144 0.0025 0.74609 0.663621 2.22364 0.0067016 106 4 1 9.61518e-07 
-0.246889 -0.327858 -2.93456 0.0025 0.751943 0.670921 2.2306 0.00664944 107 4 1 9.78525e-07 
-0.243577 -0.319137 -2.94582 0.0025 0.75781 0.67826 2.23755 0.00659796 108 4 1 9.01206e-07 
-0.240291 -0.310556 -2.91081 0.0025 0.763646 0.685583 2.24443 0.00654754 109 4 1 9.03697e-07 
-0.237029 -0.302051 -2.93972 0.0025 0.769462 0.692906 2.25125 0.00649805 110 4 1 9.30291e-07 
-0.233792 -0.29356 -2.95346 0.0025 0.77529 0.700263 2.25805 0.0064492 111 4 1 8.78482e-07 
-0.23058 -0.285127 -2.93784 0.0025 0.781101 0.70762 2.26481 0.00640122 112 4 1 8.2314e-07 
-0.227391 -0.276871 -2.90796 0.0025 0.786866 0.714945 2.27148 0.00635433 113 4 1 8.83263e-07 
-0.224226 -0.268639 -2.97263 0.0025 0.79264 0.722302 2.27813 0.00630804 114 4 1 9.07523e-07 
-0.221083 -0.260342 -2.98282 0.0025 0.79845 0.729721 2.2848 0.00626213 115 4 1 7.78914e-07 
-0.217963 -0.252228 -2.91438 0.0025 0.804207 0.737098 2.29137 0.0062173 116 4 1 7.95104e-07 
-0.214866 -0.244216 -2.95709 0.0025 0.809932 0.744458 2.29788 0.00617336 117 4 1 8.69462e-07 
-0.21179 -0.236146 -2.99335 0.0025 0.815695 0.751881 2.30441 0.00612975 118 4 1 7.97302e-07 
-0.208736 -0.228136 -2.96214 0.0025 0.821445 0.75931 2.31089 0.00608683 119 4 1 7.24059e-07 
-0.205703 -0.220283 -2.92792 0.0025 0.827137 0.766687 2.31728 0.00604495 120 4 1 7.59848e-07 
-0.202691 -0.212532 -2.95676 0.0025 0.832811 0.774063 2.32362 0.00600377 121 4 1 8.27871e-07 
-0.199699 -0.204695 -3.0128 0.0025 0.838528 0.781512 2.32999 0.00596283 122 4 1 7.78749e-07 
-0.196728 -0.196883 -2.99001 0.0025 0.844255 0.788989 2.33635 0.00592238 123 4 1 6.60277e-07 
-0.193777 -0.189264 -2.91924 0.0025 0.849905 0.796394 2.34259 0.00588301 124 4 1 7.09331e-07 
-0.190845 -0.181761 -2.972 0.0025 0.855531 0.803789 2.34877 0.00584432 125 4 1 8.27773e-07 
-0.187932 -0.174101 -3.05605 0.0025 0.861233 0.811296 2.35503 0.00580563 126 4 1 7.24664e-07 
-0.185039 -0.166471 -2.99087 0.0025 0.866932 0.818814 2.36125 0.00576747 127 4 1 5.50615e-07 
-0.182165 -0.159132 -2.87954 0.0025 0.872498 0.826187 2.3673 0.00573067 128 4 1 6.52685e-07 
-0.179308 -0.151945 -2.96004 0.0025 0.878032 0.833541 2.37329 0.00569455 129 4 1 8.53263e-07 
-0.17647 -0.144451 -3.10435 0.0025 0.883702 0.841082 2.37941 0.00565802 130 4 1 7.17681e-07 
-0.17365 -0.136958 -3.0158 0.0025 0.889395 0.848667 2.38553 0.0056218 131 4 1 4.62826e-07 
-0.170848 -0.12985 -2.85338 0.0025 0.894911 0.856049 2.39143 0.00558715 132 4 1 5.96405e-07 
-0.168063 -0.122897 -2.95853 0.0025 0.900377 0.863389 2.39726 0.00555323 133 4 1 8.68718e-07 
-0.165295 -0.115593 -3.15037 0.0025 0.906024 0.870976 2.40327 0.00551862 134 4 1 7.06421e-07 
-0.162544 -0.108221 -3.04633 0.0025 0.911713 0.878628 2.4093 0.00548418 135 4 1 3.68739e-07 
-0.159811 -0.101342 -2.81986 0.0025 0.917169 0.886 2.41505 0.00545156 136 4 1 4.66886e-07 
-0.157093 -0.0947176 -2.87759 0.0025 0.922498 0.893231 2.42065 0.00542006 137 4 1 8.24957e-07 
-0.154391 -0.0877434 -3.12993 0.0025 0.928017 0.900721 2.42643 0.00538783 138 4 1 7.69293e-07 
-0.151705 -0.080531 -3.10214 0.0025 0.933672 0.9084 2.43234 0.0053552 139 4 1 3.98706e-07 
-0.149035 -0.0737058 -2.86838 0.0025 0.939145 0.91586 2.43803 0.00532399 140 4 1 3.6318e-07 
-0.146381 -0.0672632 -2.82745 0.0025 0.944424 0.923088 2.4435 0.00529423 141 4 1 7.02919e-07 
-0.143741 -0.0606343 -3.07176 0.0025 0.949818 0.930483 2.44907 0.00526417 142 4 1 7.90099e-07 
-0.141117 -0.0536446 -3.14391 0.0025 0.955397 0.93813 2.45482 0.00523343 143 4 1 3.92537e-07 
-0.138508 -0.04694 -2.85639 0.0025 0.96082 0.945581 2.46039 0.00520389 144 4 1 1.65777e-07 
-0.135913 -0.0408734 -2.65747 0.0025 0.965919 0.952631 2.46559 0.00517642 145 4 1 6.72818e-07 
-0.133331 -0.0346541 -3.09094 0.0025 0.971139 0.959863 2.47091 0.00514859 146 4 1 9.47692e-07 
-0.130764 -0.027628 -3.27529 0.0025 0.976696 0.967529 2.47658 0.0051193 147 4 1 -7.72204e-08 
-0.128212 -0.0213945 -2.33748 0.0025 0.981753 0.974521 2.48169 0.00509293 148 4 1 -4.39676e-07 
-0.125671 -0.0168877 -2.0299 0.0025 0.98606 0.980582 2.48598 0.00507068 149 4 1 1.61741e-06 
-0.123141 -0.0107299 -3.93888 0.0025 0.991359 0.988009 2.49135 0.00504358 150 4 1 1.99202e-06 
-0.120628 -0.00177919 -4.11628 0.0025 0.997857 0.996951 2.49797 0.00501074 151 4 1 -1.8848e-06 
-0.11813 0.00365378 -0.791447 0.0025 1.00228 1.00309 2.50234 0.0049886 152 4 1 -2.11439e-06 
-0.115639 0.00439611 -0.520854 0.0025 1.0044 1.00624 2.50432 0.00497812 153 4 1 2.67284e-06 
-0.113152 0.00940421 -4.3118 0.0025 1.00863 1.01224 2.50862 0.0049572 154 4 1 2.62671e-06 
-0.110682 0.0186823 -3.94589 0.0025 1.01497 1.02095 2.51503 0.00492625 155 4 1 -2.52189e-06 
-0.108226 0.0228378 -0.338752 0.0025 1.0187 1.02616 2.51866 0.00490823 156 4 1 -2.237e-06 
-0.105773 0.0231018 -0.261352 0.0025 1.01973 1.02773 2.51963 0.00490324 157 4 1 -6.76191e-09 
-0.103323 0.0243328 -0.560813 0.0025 1.0205 1.0288 2.52041 0.00489958 158 4 1 -4.58474e-07 
-0.100874 0.0246746 0.0408972 0.0025 1.02076 1.02915 2.52067 0.00489833 159 3 1 -7.34585e-07 
-0.0984244 0.0240826 0.388097 0.0025 1.02015 1.02831 2.52006 0.00490124 160 4 1 -4.60684e-07 
-0.0959727 0.0228145 0.696431 0.0025 1.01898 1.02667 2.51891 0.00490685 161 4 1 -3.07021e-07 
-0.0935175 0.0210442 0.915535 0.0025 1.01742 1.02447 2.51735 0.0049144 162 4 1 -1.65636e-07 
-0.0910583 0.0189437 1.05212 0.0025 1.0156 1.02192 2.51555 0.00492318 163 4 1 -4.10385e-08 
-0.0885944 0.016671 1.11343 0.0025 1.01367 1.0192 2.51363 0.00493257 164 4 1 5.89517e-08 
-0.0861257 0.0143612 1.11253 0.0025 1.01173 1.01646 2.5117 0.00494205 165 4 1 1.3136e-07 
-0.0836523 0.0121209 1.06406 0.0025 1.00986 1.01384 2.50984 0.00495119 166 4 1 1.77817e-07 
-0.0811745 0.0100282 0.982004 0.0025 1.00813 1.01141 2.50811 0.00495969 167 4 1 2.02288e-07 
-0.0786926 0.00813538 0.878751 0.0025 1.00657 1.00922 2.50656 0.00496736 168 4 1 2.09505e-07 
-0.0762071 0.00647173 0.764725 0.0025 1.00521 1.00731 2.5052 0.00497409 169 4 1 2.04003e-07 
-0.0737185 0.00504807 0.648338 0.0025 1.00405 1.00569 2.50404 0.00497982 170 4 1 1.89744e-07 
-0.0712273 0.00386041 0.536061 0.0025 1.00309 1.00434 2.50308 0.0049846 171 4 1 1.70021e-07 
-0.0687339 0.00289381 0.432531 0.0025 1.00231 1.00324 2.50231 0.00498848 172 4 1 1.47487e-07 
-0.0662388 0.00212594 0.340709 0.0025 1.00169 1.00238 2.50169 0.00499155 173 4 1 1.24215e-07 
-0.0637424 0.00153036 0.262077 0.0025 1.00122 1.00171 2.50121 0.00499393 174 4 1 1.01746e-07 
-0.0612449 0.0010792 0.196894 0.0025 1.00086 1.0012 2.50085 0.00499572 175 4 1 8.11432e-08 
-0.0587466 0.000745382 0.144493 0.0025 1.00059 1.00083 2.50059 0.00499705 176 4 1 6.30487e-08 
-0.0562478 0.000504089 0.103587 0.0025 1.0004 1.00056 2.5004 0.00499801 177 4 1 4.77505e-08 
-0.0537486 0.000333695 0.0725449 0.0025 1.00026 1.00037 2.50026 0.00499868 178 4 1 3.52594e-08 
-0.0512492 0.000216145 0.0496277 0.0025 1.00017 1.00024 2.50017 0.00499915 179 4 1 2.53881e-08 
-0.0487495 0.000136928 0.0331582 0.0025 1.00011 1.00015 2.50011 0.00499946 180 4 1 1.78266e-08 
-0.0462497 8.47918e-05 0.0216319 0.0025 1.00007 1.00009 2.50007 0.00499967 181 4 1 1.22059e-08 
-0.0437498 5.129e-05 0.0137745 0.0025 1.00004 1.00006 2.50004 0.0049998 182 4 1 8.1485e-09 
-0.0412499 3.02811e-05 0.00855681 0.0025 1.00002 1.00003 2.50002 0.00499988 183 4 1 5.30247e-09 
-0.0387499 1.74315e-05 0.00518219 0.0025 1.00001 1.00002 2.50001 0.00499993 184 4 1 3.36209e-09 
-0.03625 9.77196e-06 0.00305705 0.0025 1.00001 1.00001 2.50001 0.00499996 185 4 1 2.07605e-09 
-0.03375 5.32663e-06 0.0017547 0.0025 1 1.00001 2.5 0.00499998 186 4 1 1.24751e-09 
-0.03125 2.81787e-06 0.000978591 0.0025 1 1 2.5 0.00499999 187 4 1 7.28811e-10 
-0.02875 1.44325e-06 0.000529326 0.0025 1 1 2.5 0.00499999 188 4 1 4.13429e-10 
-0.02625 7.13467e-07 0.000277058 0.0025 1 1 2.5 0.005 189 4 1 2.27349e-10 
-0.02375 3.39044e-07 0.000139909 0.0025 1 1 2.5 0.005 190 4 1 1.2094e-10 
-0.02125 1.5403e-07 6.78921e-05 0.0025 1 1 2.5 0.005 191 4 1 6.20613e-11 
-0.01875 6.63859e-08 3.14862e-05 0.0025 1 1 2.5 0.005 192 4 1 3.06072e-11 
-0.01625 2.6836e-08 1.38472e-05 0.0025 1 1 2.5 0.005 193 4 1 1.44329e-11 
-0.01375 9.99287e-09 5.70706e-06 0.0025 1 1 2.5 0.005 194 4 1 6.46027e-12 
-0.01125 3.32028e-09 2.16177e-06 0.0025 1 1 2.5 0.005 195 4 1 2.7151e-12 
-0.00875 9.20167e-10 7.24875e-07 0.0025 1 1 2.5 0.005 196 4 1 1.05267e-12 
-0.00625 1.7135e-10 1.96923e-07 0.0025 1 1 2.5 0.005 197 4 1 3.6495e-13 
-0.00375 -9.07977e-12 3.28931e-08 0.0025 1 1 2.5 0.005 198 4 1 1.04065e-13 
-0.00125 -1.59846e-11 -1.16963e-08 0.0025 1 1 2.5 0.005 199 4 1 8.98162e-15 
0.00125 1.59981e-11 1.16968e-08 0.0025 1 1 2.5 0.005 200 5 1 8.98375e-15 
0.00375 9.09306e-12 -3.2893e-08 0.0025 1 1 2.5 0.005 201 4 1 1.04068e-13 
0.00625 -1.71337e-10 -1.96922e-07 0.0025 1 1 2.5 0.005 202 4 1 3.64948e-13 
0.00875 -9.20156e-10 -7.24876e-07 0.0025 1 1 2.5 0.005 203 4 1 1.05267e-12 
0.01125 -3.32027e-09 -2.16177e-06 0.0025 1 1 2.5 0.005 204 4 1 2.71511e-12 
0.01375 -9.99287e-09 -5.70707e-06 0.0025 1 1 2.5 0.005 205 4 1 6.46025e-12 
0.01625 -2.6836e-08 -1.38472e-05 0.0025 1 1 2.5 0.005 206 4 1 1.44329e-11 
0.01875 -6.63859e-08 -3.14862e-05 0.0025 1 1 2.5 0.005 207 4 1 3.06072e-11 
0.02125 -1.5403e-07 -6.78921e-05 0.0025 1 1 2.5 0.005 208 4 1 6.20613e-11 
0.02375 -3.39044e-07 -0.000139909 0.0025 1 1 2.5 0.005 209 4 1 1.2094e-10 
0.02625 -7.13467e-07 -0.000277058 0.0025 1 1 2.5 0.005 210 4 1 2.27349e-10 
0.02875 -1.44325e-06 -0.000529326 0.0025 1 1 2.5 0.00499999 211 4 1 4.13429e-10 
0.03125 -2.81787e-06 -0.000978591 0.0025 1 1 2.5 0.00499999 212 4 1 7.28811e-10 
0.03375 -5.32663e-06 -0.0017547 0.0025 1 1.00001 2.5 0.00499998 213 4 1 1.24751e-09 
0.03625 -9.77196e-06 -0.00305705 0.0025 1.00001 1.00001 2.50001 0.00499996 214 4 1 2.07605e-09 
0.0387499 -1.74315e-05 -0.00518219 0.0025 1.00001 1.00002 2.50001 0.00499993 215 4 1 3.36209e-09 
0.0412499 -3.02811e-05 -0.00855681 0.0025 1.00002 1.00003 2.50002 0.00499988 216 4 1 5.30247e-09 
