# Time [s]: 0.314682
# Columns: pos [m], vel [m/s], acc [m/s^2], mass [kg], dens [kg/m^3], pres [Pa], ene [J/kg], sml [m], id, neighbor, alpha, gradh, ...additional?
1.29041 -0.673096 0.000398242 0.0025 0.51105 0.432726 2.1525 0.00978378 0 4 1 -0.000134226 
1.2952 -0.673097 0.000420621 0.0025 0.536907 0.426188 1.95004 0.0093126 1 4 1 0.000179252 
1.29973 -0.673098 0.000440644 0.0025 0.548236 0.430857 1.9685 0.00912016 2 3 1 -1.90586e-05 
1.30432 -0.6731 0.000459584 0.0025 0.54597 0.429192 1.96464 0.009158 3 5 1 3.48581e-06 
1.30889 -0.673102 0.000478591 0.0025 0.546368 0.429347 1.96458 0.00915134 4 4 1 -1.38719e-07 
1.31347 -0.673103 0.000499862 0.0025 0.546378 0.429316 1.96434 0.00915117 5 4 1 1.43681e-07 
1.31804 -0.673105 0.000524737 0.0025 0.5464 0.429314 1.96428 0.0091508 6 4 1 -3.56907e-09 
1.32262 -0.673107 0.000552685 0.0025 0.546413 0.42931 1.96422 0.0091506 7 4 1 8.16901e-09 
1.32719 -0.67311 0.000582034 0.0025 0.546426 0.429308 1.96416 0.00915037 8 4 1 4.69439e-09 
1.33177 -0.673112 0.000611985 0.0025 0.546437 0.429307 1.96412 0.00915018 9 4 1 5.40309e-09 
1.33634 -0.673115 0.000644061 0.0025 0.546447 0.429305 1.96407 0.00915001 10 4 1 -2.31988e-09 
1.34092 -0.673118 0.000681408 0.0025 0.546457 0.429303 1.96403 0.00914985 11 4 1 4.6339e-09 
1.34549 -0.673121 0.000726303 0.0025 0.546466 0.429301 1.96399 0.0091497 12 4 1 2.73762e-09 
1.35007 -0.673124 0.000778009 0.0025 0.546474 0.429299 1.96395 0.00914957 13 4 1 3.44243e-09 
1.35464 -0.673128 0.000833123 0.0025 0.54648 0.429297 1.96392 0.00914947 14 4 1 1.98269e-09 
1.35922 -0.673132 0.000888579 0.0025 0.546486 0.429295 1.96389 0.00914937 15 4 1 -1.71955e-09 
1.36379 -0.673136 0.000945025 0.0025 0.546491 0.429293 1.96386 0.00914928 16 4 1 4.76228e-09 
1.36837 -0.67314 0.00100746 0.0025 0.546495 0.42929 1.96383 0.00914921 17 4 1 1.32833e-09 
1.37294 -0.673145 0.00108176 0.0025 0.546499 0.429287 1.96381 0.00914915 18 4 1 -1.37215e-09 
1.37752 -0.67315 0.0011693 0.0025 0.546502 0.429284 1.96378 0.00914909 19 4 1 2.49519e-09 
1.38209 -0.673156 0.00126433 0.0025 0.546505 0.429281 1.96376 0.00914905 20 4 1 9.51818e-10 
1.38667 -0.673162 0.00135789 0.0025 0.546507 0.429278 1.96374 0.00914902 21 4 1 9.78214e-10 
1.39124 -0.673168 0.00144658 0.0025 0.546508 0.429274 1.96372 0.009149 22 4 1 8.51698e-10 
1.39581 -0.673175 0.00153875 0.0025 0.546508 0.42927 1.9637 0.00914899 23 4 1 -3.90803e-10 
1.40039 -0.673183 0.00165096 0.0025 0.546509 0.429266 1.96367 0.00914899 24 3 1 1.21032e-09 
1.40496 -0.673191 0.00179518 0.0025 0.546508 0.429262 1.96366 0.00914899 25 4 1 3.98168e-10 
1.40954 -0.673199 0.00196736 0.0025 0.546507 0.429257 1.96364 0.00914901 26 4 1 -7.59142e-10 
1.41411 -0.673209 0.00214874 0.0025 0.546506 0.429251 1.96362 0.00914903 27 4 1 8.03981e-10 
1.41869 -0.673219 0.00232095 0.0025 0.546504 0.429246 1.9636 0.00914907 28 4 1 4.58873e-10 
1.42326 -0.67323 0.0024828 0.0025 0.546501 0.429239 1.96358 0.00914912 29 4 1 -1.16861e-09 
1.42784 -0.673242 0.00265428 0.0025 0.546497 0.429233 1.96356 0.00914918 30 4 1 5.7567e-11 
1.43241 -0.673255 0.00286382 0.0025 0.546493 0.429225 1.96354 0.00914924 31 4 1 1.40579e-09 
1.43698 -0.673269 0.00312923 0.0025 0.546488 0.429217 1.96353 0.00914933 32 4 1 -1.57213e-09 
1.44156 -0.673285 0.00344748 0.0025 0.546483 0.429209 1.96351 0.00914942 33 4 1 -1.69175e-09 
1.44613 -0.673301 0.00380108 0.0025 0.546476 0.429199 1.96348 0.00914952 34 4 1 1.14044e-09 
1.45071 -0.673319 0.00417455 0.0025 0.546469 0.429189 1.96346 0.00914965 35 4 1 -1.26518e-09 
1.45528 -0.673339 0.00456674 0.0025 0.54646 0.429177 1.96344 0.00914979 36 4 1 -2.01055e-09 
1.45986 -0.673361 0.00498966 0.0025 0.546451 0.429165 1.96342 0.00914995 37 4 1 1.92721e-10 
1.46443 -0.673385 0.00545929 0.0025 0.54644 0.429151 1.9634 0.00915013 38 4 1 -1.28123e-09 
1.46901 -0.673412 0.00599205 0.0025 0.546428 0.429136 1.96337 0.00915034 39 4 1 -2.29836e-09 
1.47358 -0.673441 0.00661014 0.0025 0.546414 0.429119 1.96334 0.00915057 40 4 1 -1.11074e-09 
1.47816 -0.673474 0.00734009 0.0025 0.546399 0.429101 1.96331 0.00915082 41 4 1 -1.69707e-09 
1.48274 -0.673511 0.00818843 0.0025 0.546382 0.42908 1.96328 0.00915111 42 4 1 -3.07778e-09 
1.48731 -0.673551 0.00910889 0.0025 0.546362 0.429057 1.96325 0.00915144 43 4 1 -2.65541e-09 
1.49189 -0.673596 0.0100106 0.0025 0.54634 0.429032 1.96321 0.0091518 44 4 1 -1.70288e-09 
1.49646 -0.673648 0.0108485 0.0025 0.546316 0.429004 1.96317 0.00915221 45 4 1 -3.03804e-09 
-0.498961 -0.673707 0.0117488 0.0025 0.546289 0.428973 1.96312 0.00915266 46 4 1 -3.74315e-09 
-0.494385 -0.673775 0.0130097 0.0025 0.54626 0.428939 1.96307 0.00915316 47 4 1 -3.43562e-09 
-0.489808 -0.673852 0.0148768 0.0025 0.546227 0.428901 1.96302 0.00915371 48 4 1 -5.20517e-09 
-0.485231 -0.673937 0.0172979 0.0025 0.546189 0.428859 1.96296 0.00915435 49 4 1 -7.38268e-09 
-0.480654 -0.67403 0.0200029 0.0025 0.546145 0.428809 1.96289 0.00915508 50 4 1 -7.78497e-09 
-0.476076 -0.674132 0.0228207 0.0025 0.546095 0.428753 1.96282 0.00915592 51 4 1 -7.10808e-09 
-0.471498 -0.674243 0.0257529 0.0025 0.546038 0.428689 1.96273 0.00915688 52 4 1 -7.84274e-09 
-0.466919 -0.674365 0.0287464 0.0025 0.545974 0.428618 1.96263 0.00915795 53 4 1 -8.2177e-09 
-0.46234 -0.674498 0.0316133 0.0025 0.545904 0.42854 1.96253 0.00915913 54 4 1 -6.33938e-09 
-0.45776 -0.674641 0.0341031 0.0025 0.545828 0.428456 1.96241 0.0091604 55 4 1 -3.79667e-09 
-0.453179 -0.674793 0.0358357 0.0025 0.545748 0.428367 1.9623 0.00916174 56 4 1 -1.81243e-09 
-0.448598 -0.67495 0.0365383 0.0025 0.545666 0.428277 1.96217 0.00916311 57 4 1 1.49261e-09 
-0.444016 -0.675108 0.0362798 0.0025 0.545586 0.428188 1.96205 0.00916446 58 4 1 6.87638e-09 
-0.439434 -0.675258 0.0343978 0.0025 0.545511 0.428105 1.96194 0.00916572 59 4 1 1.19953e-08 
-0.434851 -0.675391 0.0302797 0.0025 0.545445 0.428032 1.96185 0.00916683 60 4 1 1.81306e-08 
-0.430267 -0.675497 0.023716 0.0025 0.545394 0.427976 1.96177 0.00916768 61 4 1 2.69412e-08 
-0.425683 -0.67556 0.0108426 0.0025 0.545366 0.427944 1.96172 0.00916815 62 4 1 1.99671e-08 
-0.421099 -0.675597 0.0179316 0.0025 0.545355 0.427933 1.9617 0.00916834 63 5 1 7.87248e-08 
-0.416515 -0.67558 -0.0417407 0.0025 0.54541 0.427999 1.96178 0.00916741 64 4 1 2.15817e-07 
-0.411931 -0.675132 -0.149516 0.0025 0.545641 0.428253 1.96211 0.00916353 65 4 1 2.507e-07 
-0.407351 -0.674335 -0.204786 0.0025 0.546074 0.428732 1.96273 0.00915627 66 4 1 3.76754e-07 
-0.402775 -0.673088 -0.375553 0.0025 0.5468 0.429543 1.96377 0.00914411 67 4 1 7.83759e-07 
-0.398207 -0.670712 -0.724387 0.0025 0.5481 0.430983 1.96563 0.00912243 68 4 1 1.16205e-06 
-0.393653 -0.666706 -1.11169 0.0025 0.550175 0.433266 1.9686 0.00908802 69 4 1 1.24404e-06 
-0.389119 -0.661299 -1.38633 0.0025 0.552964 0.436335 1.97259 0.00904218 70 4 1 1.14761e-06 
-0.38461 -0.654983 -1.56329 0.0025 0.556276 0.439995 1.9773 0.00898835 71 4 1 1.19146e-06 
-0.38013 -0.647898 -1.76558 0.0025 0.560031 0.44416 1.98263 0.00892807 72 4 1 1.36866e-06 
-0.375682 -0.640005 -1.97589 0.0025 0.564245 0.448848 1.98858 0.00886139 73 4 1 1.59526e-06 
-0.371269 -0.631233 -2.22664 0.0025 0.568951 0.454097 1.9952 0.0087881 74 4 1 1.77579e-06 
-0.366894 -0.621589 -2.4442 0.0025 0.574142 0.459905 2.00246 0.00870864 75 4 1 1.82547e-06 
-0.36256 -0.611254 -2.61416 0.0025 0.579731 0.466177 2.01023 0.00862469 76 4 1 1.75487e-06 
-0.358269 -0.600503 -2.70224 0.0025 0.585581 0.47277 2.01832 0.00853853 77 4 1 1.61479e-06 
-0.354021 -0.589654 -2.73631 0.0025 0.591552 0.479526 2.02653 0.00845235 78 4 1 1.46596e-06 
-0.349816 -0.578886 -2.72406 0.0025 0.597537 0.486329 2.0347 0.00836769 79 4 1 1.36291e-06 
-0.345653 -0.568295 -2.71497 0.0025 0.603481 0.493113 2.04277 0.00828526 80 4 1 1.26496e-06 
-0.341531 -0.557926 -2.67449 0.0025 0.609351 0.499839 2.0507 0.00820545 81 4 1 1.15869e-06 
-0.337448 -0.547841 -2.62947 0.0025 0.615114 0.506469 2.05843 0.00812857 82 4 1 1.09991e-06 
-0.333402 -0.537998 -2.5941 0.0025 0.620772 0.513002 2.06598 0.00805449 83 4 1 1.06034e-06 
-0.329393 -0.528401 -2.56418 0.0025 0.626337 0.519451 2.07337 0.00798293 84 4 1 1.0025e-06 
-0.325419 -0.51901 -2.52142 0.0025 0.631807 0.525814 2.08059 0.00791381 85 4 1 9.70226e-07 
-0.321479 -0.509859 -2.49956 0.0025 0.637194 0.532102 2.08766 0.00784691 86 4 1 9.8e-07 
-0.317572 -0.500835 -2.49426 0.0025 0.642532 0.538354 2.09464 0.00778171 87 4 1 9.7511e-07 
-0.313697 -0.491927 -2.48563 0.0025 0.647841 0.544592 2.10154 0.00771794 88 4 1 1.00969e-06 
-0.309854 -0.48309 -2.51601 0.0025 0.653156 0.550859 2.10842 0.00765514 89 4 1 1.05526e-06 
-0.306042 -0.474219 -2.5453 0.0025 0.658516 0.5572 2.11532 0.00759282 90 4 1 1.11338e-06 
-0.302261 -0.46527 -2.61164 0.0025 0.663957 0.563656 2.1223 0.00753061 91 4 1 1.17534e-06 
-0.298511 -0.456171 -2.67668 0.0025 0.669508 0.570264 2.12938 0.00746817 92 4 1 1.17804e-06 
-0.294793 -0.446982 -2.72147 0.0025 0.675156 0.577011 2.13654 0.00740569 93 4 1 1.19932e-06 
-0.291105 -0.437728 -2.78599 0.0025 0.6809 0.583895 2.14379 0.00734322 94 4 1 1.23237e-06 
-0.287449 -0.428315 -2.84849 0.0025 0.686746 0.590924 2.15114 0.00728071 95 4 1 1.18556e-06 
-0.283825 -0.418893 -2.86131 0.0025 0.692653 0.59805 2.15852 0.00721862 96 4 1 1.15236e-06 
-0.280231 -0.409512 -2.89189 0.0025 0.69859 0.605238 2.1659 0.00715728 97 4 1 1.15089e-06 
-0.276667 -0.400111 -2.91446 0.0025 0.704558 0.612488 2.17328 0.00709665 98 4 1 1.09955e-06 
-0.273134 -0.390807 -2.90779 0.0025 0.710527 0.619765 2.18063 0.00703703 99 4 1 1.09819e-06 
-0.26963 -0.381546 -2.94094 0.0025 0.716503 0.627075 2.18795 0.00697834 100 4 1 1.08201e-06 
-0.266155 -0.372326 -2.93632 0.0025 0.722485 0.634414 2.19523 0.00692056 101 4 1 1.0301e-06 
-0.262709 -0.363221 -2.93235 0.0025 0.728444 0.641753 2.20246 0.00686394 102 4 1 1.03534e-06 
-0.259291 -0.35416 -2.9526 0.0025 0.734398 0.649108 2.20964 0.0068083 103 4 1 1.01373e-06 
-0.255901 -0.345182 -2.94525 0.0025 0.740343 0.656475 2.21678 0.00675363 104 4 1 9.634e-07 
-0.252538 -0.336304 -2.93024 0.0025 0.746256 0.663828 2.22384 0.00670011 105 4 1 9.89186e-07 
-0.249201 -0.327513 -2.96632 0.0025 0.752168 0.671202 2.23087 0.00664745 106 4 1 9.94648e-07 
-0.24589 -0.318711 -2.97266 0.0025 0.758093 0.678614 2.23788 0.0065955 107 4 1 9.15521e-07 
-0.242605 -0.310056 -2.93932 0.0025 0.763984 0.686008 2.24482 0.00654464 108 4 1 9.29166e-07 
-0.239345 -0.301477 -2.97521 0.0025 0.76986 0.693409 2.25171 0.00649468 109 4 1 9.46584e-07 
-0.23611 -0.292894 -2.98126 0.0025 0.775749 0.700843 2.25859 0.00644539 110 4 1 8.82922e-07 
-0.2329 -0.28441 -2.9607 0.0025 0.78161 0.708266 2.2654 0.00639705 111 4 1 8.4058e-07 
-0.229713 -0.276077 -2.93905 0.0025 0.787428 0.71566 2.27213 0.00634979 112 4 1 9.10905e-07 
-0.22655 -0.267742 -3.00977 0.0025 0.793263 0.723097 2.27885 0.00630308 113 4 1 9.08933e-07 
-0.22341 -0.259371 -2.99882 0.0025 0.799125 0.730584 2.28557 0.00625684 114 4 1 7.84298e-07 
-0.220293 -0.25121 -2.94139 0.0025 0.804927 0.738022 2.29219 0.00621175 115 4 1 8.34839e-07 
-0.217198 -0.243119 -3.00252 0.0025 0.810716 0.745467 2.29877 0.00616739 116 4 1 8.83997e-07 
-0.214126 -0.234956 -3.0203 0.0025 0.816543 0.752975 2.30536 0.00612338 117 4 1 7.87846e-07 
-0.211075 -0.226903 -2.97986 0.0025 0.822338 0.760466 2.3119 0.00608022 118 4 1 7.37953e-07 
-0.208045 -0.219012 -2.95664 0.0025 0.828075 0.767907 2.31833 0.0060381 119 4 1 7.93496e-07 
-0.205037 -0.211161 -2.99967 0.0025 0.833812 0.775367 2.32474 0.00599656 120 4 1 8.4767e-07 
-0.202049 -0.203226 -3.0485 0.0025 0.839596 0.782905 2.33118 0.00595524 121 4 1 7.5845e-07 
-0.199081 -0.195386 -2.99399 0.0025 0.845363 0.79044 2.33757 0.00591462 122 4 1 6.64739e-07 
-0.196134 -0.187741 -2.94695 0.0025 0.851049 0.797897 2.34385 0.0058751 123 4 1 7.68595e-07 
-0.193206 -0.180124 -3.03389 0.0025 0.856748 0.80539 2.35011 0.00583602 124 4 1 8.40828e-07 
-0.190298 -0.172349 -3.08417 0.0025 0.862523 0.812994 2.35644 0.00579695 125 4 1 6.7103e-07 
-0.187409 -0.164732 -2.97418 0.0025 0.868241 0.820546 2.36267 0.00575877 126 4 1 5.62084e-07 
-0.184539 -0.157413 -2.9104 0.0025 0.873831 0.827958 2.36874 0.00572193 127 4 1 7.49777e-07 
-0.181687 -0.150069 -3.05008 0.0025 0.879458 0.835438 2.37483 0.00568532 128 4 1 8.67578e-07 
-0.178854 -0.142426 -3.1356 0.0025 0.88522 0.843102 2.38105 0.00564831 129 4 1 6.18089e-07 
-0.176039 -0.134995 -2.96725 0.0025 0.890915 0.850698 2.38716 0.00561221 130 4 1 4.70788e-07 
-0.173241 -0.127934 -2.88604 0.0025 0.896433 0.858094 2.39306 0.00557766 131 4 1 7.40128e-07 
-0.170461 -0.120799 -3.08145 0.0025 0.902014 0.865589 2.39901 0.00554315 132 4 1 8.78415e-07 
-0.167698 -0.113302 -3.17783 0.0025 0.90777 0.87332 2.40513 0.005508 133 4 1 5.54044e-07 
-0.164953 -0.106021 -2.96213 0.0025 0.913431 0.880946 2.41111 0.00547387 134 4 1 3.5612e-07 
-0.162224 -0.09926 -2.82827 0.0025 0.918848 0.888279 2.41681 0.0054416 135 4 1 6.51689e-07 
-0.159511 -0.0924641 -3.02693 0.0025 0.924292 0.895667 2.42253 0.00540955 136 4 1 8.89004e-07 
-0.156815 -0.0852439 -3.19982 0.0025 0.929966 0.903364 2.42848 0.00537654 137 4 1 6.04818e-07 
-0.154135 -0.0780762 -3.01679 0.0025 0.935623 0.911054 2.43438 0.00534403 138 4 1 3.2251e-07 
-0.151471 -0.0714219 -2.83455 0.0025 0.941029 0.918438 2.43998 0.00531333 139 4 1 5.28079e-07 
-0.148821 -0.0648839 -2.96192 0.0025 0.946382 0.925774 2.44552 0.00528328 140 4 1 8.27607e-07 
-0.146187 -0.0579582 -3.18886 0.0025 0.951945 0.933396 2.45127 0.0052524 141 4 1 6.28094e-07 
-0.143569 -0.0509464 -3.04444 0.0025 0.957543 0.941073 2.45703 0.0052217 142 4 1 2.14303e-07 
-0.140965 -0.0445422 -2.73222 0.0025 0.962835 0.948365 2.46244 0.005193 143 4 1 3.96e-07 
-0.138376 -0.0384455 -2.87416 0.0025 0.967999 0.955517 2.46771 0.0051653 144 4 1 9.52305e-07 
-0.1358 -0.031663 -3.33548 0.0025 0.973499 0.963117 2.47333 0.00513611 145 4 1 4.6593e-07 
-0.13324 -0.0247745 -2.83798 0.0025 0.97893 0.970605 2.47885 0.00510762 146 4 1 -5.19683e-07 
-0.130692 -0.0195963 -1.96603 0.0025 0.983514 0.977001 2.48344 0.00508381 147 4 1 6.13749e-07 
-0.128156 -0.0145317 -3.04627 0.0025 0.98825 0.983673 2.4882 0.00505945 148 4 1 2.38767e-06 
-0.125633 -0.00629818 -4.56088 0.0025 0.994538 0.992382 2.49461 0.00502746 149 4 1 -1.19008e-07 
-0.123128 0.00145524 -2.3185 0.0025 1.00025 1.00024 2.50036 0.00499873 150 4 1 -2.835e-06 
-0.120634 0.00353208 0.0472009 0.0025 1.00301 1.00421 2.50298 0.00498497 151 4 1 6.07212e-07 
-0.118143 0.00591647 -2.79238 0.0025 1.006 1.00856 2.50594 0.00497016 152 4 1 3.77788e-06 
-0.115664 0.0145624 -4.96398 0.0025 1.01207 1.01695 2.51212 0.00494039 153 4 1 -5.88376e-07 
-0.113203 0.0217143 -1.67346 0.0025 1.01736 1.02426 2.51738 0.00491467 154 4 1 -3.18806e-06 
-0.110749 0.0226607 0.169719 0.0025 1.01918 1.02691 2.51909 0.00490592 155 4 1 -5.26285e-07 
-0.108297 0.0235624 -0.864304 0.0025 1.02005 1.02819 2.51995 0.00490174 156 4 1 4.55294e-08 
-0.105848 0.024876 -0.285268 0.0025 1.02087 1.02931 2.52079 0.00489777 157 3 1 -8.98042e-07 
-0.103399 0.0247189 0.217041 0.0025 1.02073 1.02911 2.52064 0.00489847 158 4 1 -6.42061e-07 
-0.100949 0.0237249 0.583074 0.0025 1.01979 1.0278 2.5197 0.00490299 159 4 1 -3.92924e-07 
-0.0984962 0.0221259 0.844967 0.0025 1.01835 1.02578 2.51828 0.00490989 160 4 1 -2.30619e-07 
-0.0960393 0.0201152 1.01984 0.0025 1.0166 1.02332 2.51654 0.00491835 161 4 1 -9.09747e-08 
-0.0935778 0.0178656 1.11162 0.0025 1.01468 1.02061 2.51463 0.00492768 162 4 1 2.21998e-08 
-0.0911116 0.0155254 1.13476 0.0025 1.0127 1.01783 2.51266 0.0049373 163 4 1 1.07015e-07 
-0.0886405 0.0132147 1.10379 0.0025 1.01077 1.01511 2.51074 0.00494674 164 4 1 1.64209e-07 
-0.0861648 0.0110237 1.03337 0.0025 1.00895 1.01256 2.50893 0.00495566 165 4 1 1.97443e-07 
-0.0836848 0.00901543 0.936614 0.0025 1.00729 1.01023 2.50728 0.00496381 166 4 1 2.11403e-07 
-0.081201 0.00722888 0.824739 0.0025 1.00583 1.00818 2.50582 0.00497104 167 4 1 2.10767e-07 
-0.0787138 0.00568263 0.706999 0.0025 1.00457 1.00641 2.50456 0.00497727 168 4 1 1.9971e-07 
-0.0762237 0.00437881 0.590728 0.0025 1.00351 1.00492 2.5035 0.00498252 169 4 1 1.81766e-07 
-0.0737313 0.00330679 0.481422 0.0025 1.00264 1.00371 2.50264 0.00498682 170 4 1 1.59847e-07 
-0.0712369 0.0024469 0.382841 0.0025 1.00195 1.00274 2.50195 0.00499027 171 4 1 1.36291e-07 
-0.068741 0.00177375 0.297158 0.0025 1.00141 1.00198 2.50141 0.00499296 172 4 1 1.12901e-07 
-0.066244 0.00125936 0.225177 0.0025 1.001 1.0014 2.501 0.00499501 173 4 1 9.09817e-08 
-0.063746 0.000875568 0.166608 0.0025 1.00069 1.00097 2.50069 0.00499653 174 4 1 7.13838e-08 
-0.0612474 0.000595945 0.120377 0.0025 1.00047 1.00066 2.50047 0.00499764 175 4 1 5.45595e-08 
-0.0587484 0.000396982 0.0849364 0.0025 1.00031 1.00044 2.50031 0.00499843 176 4 1 4.06369e-08 
-0.056249 0.000258721 0.0585238 0.0025 1.0002 1.00029 2.5002 0.00499898 177 4 1 2.95018e-08 
-0.0537494 0.000164894 0.0393744 0.0025 1.00013 1.00018 2.50013 0.00499935 178 4 1 2.08785e-08 
-0.0512496 0.000102721 0.025861 0.0025 1.00008 1.00011 2.50008 0.0049996 179 4 1 1.4404e-08 
-0.0487498 6.25055e-05 0.0165763 0.0025 1.00005 1.00007 2.50005 0.00499975 180 4 1 9.68629e-09 
-0.0462499 3.71226e-05 0.0103642 0.0025 1.00003 1.00004 2.50003 0.00499985 181 4 1 6.348e-09 
-0.0437499 2.1498e-05 0.0063172 0.0025 1.00002 1.00002 2.50002 0.00499992 182 4 1 4.05299e-09 
-0.04125 1.21251e-05 0.00375055 0.0025 1.00001 1.00001 2.50001 0.00499995 183 4 1 2.51977e-09 
-0.03875 6.65052e-06 0.00216666 0.0025 1.00001 1.00001 2.50001 0.00499997 184 4 1 1.5244e-09 
-0.03625 3.54095e-06 0.00121627 0.0025 1 1 2.5 0.00499999 185 4 1 8.96596e-10 
-0.03375 1.82588e-06 0.000662327 0.0025 1 1 2.5 0.00499999 186 4 1 5.12076e-10 
-0.03125 9.0913e-07 0.000349108 0.0025 1 1 2.5 0.005 187 4 1 2.83554e-10 
-0.02875 4.35414e-07 0.000177603 0.0025 1 1 2.5 0.005 188 4 1 1.51922e-10 
-0.02625 1.99542e-07 8.68759e-05 0.0025 1 1 2.5 0.005 189 4 1 7.85476e-11 
-0.02375 8.68689e-08 4.065e-05 0.0025 1 1 2.5 0.005 190 4 1 3.90507e-11 
-0.02125 3.55443e-08 1.80613e-05 0.0025 1 1 2.5 0.005 191 4 1 1.8578e-11 
-0.01875 1.34442e-08 7.53723e-06 0.0025 1 1 2.5 0.005 192 4 1 8.39945e-12 
-0.01625 4.56891e-09 2.90243e-06 0.0025 1 1 2.5 0.005 193 4 1 3.57228e-12 
-0.01375 1.31886e-09 9.98594e-07 0.0025 1 1 2.5 0.005 194 4 1 1.4061e-12 
-0.01125 2.78899e-10 2.8589e-07 0.0025 1 1 2.5 0.005 195 4 1 4.96446e-13 
-0.00875 1.69225e-11 5.76866e-08 0.0025 1 1 2.5 0.005 196 4 1 1.53901e-13 
-0.00625 -8.19762e-12 -1.80783e-08 0.0025 1 1 2.5 0.005 197 5 1 2.98783e-14 
-0.00375 9.365e-12 -8.12054e-09 0.0025 1 1 2.5 0.005 198 4 1 -7.83018e-15 
-0.00125 5.20396e-12 -1.53739e-09 0.0025 1 1 2.5 0.005 199 3 1 -3.45857e-15 
0.00125 -5.19203e-12 1.53767e-09 0.0025 1 1 2.5 0.005 200 4 1 -3.45821e-15 
0.00375 -9.3531e-12 8.12128e-09 0.0025 1 1 2.5 0.005 201 4 1 -7.83018e-15 
0.00625 8.20947e-12 1.80798e-08 0.0025 1 1 2.5 0.005 202 5 1 2.98773e-14 
0.00875 -1.6911e-11 -5.76879e-08 0.0025 1 1 2.5 0.005 203 4 1 1.53899e-13 
0.01125 -2.78887e-10 -2.8589e-07 0.0025 1 1 2.5 0.005 204 4 1 4.96456e-13 
0.01375 -1.31885e-09 -9.98597e-07 0.0025 1 1 2.5 0.005 205 4 1 1.40609e-12 
0.01625 -4.5689e-09 -2.90243e-06 0.0025 1 1 2.5 0.005 206 4 1 3.57229e-12 
0.01875 -1.34442e-08 -7.53723e-06 0.0025 1 1 2.5 0.005 207 4 1 8.39944e-12 
0.02125 -3.55442e-08 -1.80613e-05 0.0025 1 1 2.5 0.005 208 4 1 1.8578e-11 
0.02375 -8.68688e-08 -4.065e-05 0.0025 1 1 2.5 0.005 209 4 1 3.90507e-11 
0.02625 -1.99542e-07 -8.68759e-05 0.0025 1 1 2.5 0.005 210 4 1 7.85476e-11 
0.02875 -4.35414e-07 -0.000177603 0.0025 1 1 2.5 0.005 211 4 1 1.51922e-10 
0.03125 -9.0913e-07 -0.000349108 0.0025 1 1 2.5 0.005 212 4 1 2.83554e-10 
0.03375 -1.82588e-06 -0.000662327 0.0025 1 1 2.5 0.00499999 213 4 1 5.12076e-10 
0.03625 -3.54095e-06 -0.00121627 0.0025 1 1 2.5 0.00499999 214 4 1 8.96596e-10 
0.03875 -6.65052e-06 -0.00216666 0.0025 1.00001 1.00001 2.50001 0.00499997 215 4 1 1.5244e-09 
0.04125 -1.21251e-05 -0.00375055 0.0025 1.00001 1.00001 2.50001 0.00499995 216 4 1 2.51977e-09 
0.0437499 -2.1498e-05 -0.0063172 0.0025 1.00002 1.00002 2.50002 0.00499992 217 4 1 4.05299e-09 
