# Time [s]: 0.325188
# Columns: pos [m], vel [m/s], acc [m/s^2], mass [kg], dens [kg/m^3], pres [Pa], ene [J/kg], sml [m], id, neighbor, alpha, gradh, ...additional?
1.28334 -0.673092 0.000340859 0.0025 0.511051 0.432728 2.1525 0.00978375 0 4 1 -0.000134226 
1.28812 -0.673093 0.000353896 0.0025 0.536908 0.42619 1.95004 0.00931258 1 4 1 0.000179252 
1.29266 -0.673094 0.00036733 0.0025 0.548238 0.430859 1.9685 0.00912013 2 3 1 -1.90586e-05 
1.29724 -0.673095 0.000383197 0.0025 0.545972 0.429194 1.96464 0.00915797 3 5 1 3.48578e-06 
1.30182 -0.673097 0.000401674 0.0025 0.54637 0.429349 1.96458 0.00915131 4 4 1 -1.38718e-07 
1.3064 -0.673099 0.000421945 0.0025 0.54638 0.429318 1.96435 0.00915114 5 4 1 1.43685e-07 
1.31097 -0.6731 0.000443033 0.0025 0.546403 0.429316 1.96429 0.00915076 6 4 1 -3.5581e-09 
1.31555 -0.673102 0.000464998 0.0025 0.546415 0.429313 1.96422 0.00915055 7 4 1 8.18476e-09 
1.32012 -0.673104 0.000489189 0.0025 0.546429 0.429311 1.96417 0.00915033 8 4 1 4.70855e-09 
1.3247 -0.673106 0.000517204 0.0025 0.54644 0.42931 1.96412 0.00915013 9 4 1 5.41149e-09 
1.32927 -0.673109 0.000549409 0.0025 0.546451 0.429309 1.96408 0.00914996 10 4 1 -2.31401e-09 
1.33385 -0.673111 0.000584405 0.0025 0.546461 0.429307 1.96403 0.00914979 11 4 1 4.64687e-09 
1.33842 -0.673114 0.000620211 0.0025 0.54647 0.429306 1.96399 0.00914964 12 4 1 2.76563e-09 
1.343 -0.673117 0.000656362 0.0025 0.546478 0.429304 1.96396 0.00914951 13 4 1 3.4835e-09 
1.34757 -0.67312 0.000695095 0.0025 0.546484 0.429302 1.96393 0.00914939 14 4 1 2.02431e-09 
1.35215 -0.673123 0.000740178 0.0025 0.54649 0.4293 1.9639 0.00914929 15 4 1 -1.69086e-09 
1.35672 -0.673127 0.000793843 0.0025 0.546496 0.429298 1.96387 0.0091492 16 4 1 4.77686e-09 
1.36129 -0.67313 0.00085429 0.0025 0.546501 0.429296 1.96384 0.00914912 17 4 1 1.34477e-09 
1.36587 -0.673135 0.000916484 0.0025 0.546505 0.429294 1.96382 0.00914905 18 4 1 -1.33151e-09 
1.37044 -0.673139 0.000976581 0.0025 0.546508 0.429291 1.96379 0.00914899 19 4 1 2.56789e-09 
1.37502 -0.673144 0.00103672 0.0025 0.546511 0.429289 1.96377 0.00914894 20 4 1 1.03682e-09 
1.37959 -0.673149 0.00110542 0.0025 0.546514 0.429286 1.96375 0.0091489 21 4 1 1.03887e-09 
1.38417 -0.673154 0.00119185 0.0025 0.546516 0.429283 1.96373 0.00914887 22 4 1 8.65905e-10 
1.38874 -0.67316 0.00129782 0.0025 0.546517 0.42928 1.96371 0.00914885 23 4 1 -4.03626e-10 
1.39332 -0.673167 0.00141475 0.0025 0.546518 0.429276 1.96369 0.00914883 24 4 1 1.22576e-09 
1.39789 -0.673173 0.00152944 0.0025 0.546518 0.429272 1.96367 0.00914883 25 3 1 4.92167e-10 
1.40246 -0.67318 0.00163485 0.0025 0.546518 0.429268 1.96365 0.00914884 26 4 1 -5.85798e-10 
1.40704 -0.673188 0.00173723 0.0025 0.546517 0.429264 1.96363 0.00914885 27 4 1 1.00038e-09 
1.41161 -0.673197 0.00185329 0.0025 0.546516 0.429259 1.96362 0.00914887 28 4 1 6.05102e-10 
1.41619 -0.673206 0.00199932 0.0025 0.546514 0.429254 1.9636 0.0091489 29 4 1 -1.10546e-09 
1.42076 -0.673216 0.00218078 0.0025 0.546512 0.429248 1.96358 0.00914893 30 4 1 7.24487e-11 
1.42534 -0.673227 0.00239033 0.0025 0.546509 0.429243 1.96357 0.00914898 31 4 1 1.4503e-09 
1.42991 -0.673239 0.00261495 0.0025 0.546505 0.429236 1.96355 0.00914904 32 4 1 -1.43201e-09 
1.43449 -0.673252 0.00284581 0.0025 0.546501 0.429229 1.96353 0.00914911 33 4 1 -1.44231e-09 
1.43906 -0.673265 0.00308323 0.0025 0.546496 0.429221 1.96351 0.00914919 34 4 1 1.4637e-09 
1.44364 -0.67328 0.00333497 0.0025 0.546491 0.429213 1.9635 0.00914929 35 4 1 -9.16944e-10 
1.44821 -0.673297 0.0036127 0.0025 0.546484 0.429204 1.96348 0.0091494 36 4 1 -1.66769e-09 
1.45278 -0.673314 0.00393043 0.0025 0.546477 0.429194 1.96346 0.00914952 37 4 1 5.23267e-10 
1.45736 -0.673334 0.00430126 0.0025 0.546469 0.429183 1.96344 0.00914965 38 4 1 -9.48692e-10 
1.46193 -0.673356 0.00472543 0.0025 0.54646 0.429171 1.96342 0.00914981 39 4 1 -1.90445e-09 
1.46651 -0.67338 0.00517432 0.0025 0.546449 0.429158 1.96339 0.00914998 40 4 1 -5.19585e-10 
1.47108 -0.673406 0.00559309 0.0025 0.546438 0.429143 1.96337 0.00915017 41 4 1 -7.37249e-10 
1.47566 -0.673436 0.00594407 0.0025 0.546425 0.429128 1.96334 0.00915038 42 4 1 -1.70696e-09 
1.48023 -0.67347 0.0062744 0.0025 0.546411 0.429111 1.96332 0.00915061 43 4 1 -1.14732e-09 
1.48481 -0.673509 0.00673974 0.0025 0.546397 0.429093 1.96329 0.00915086 44 4 1 -6.09035e-10 
1.48939 -0.673553 0.00752477 0.0025 0.54638 0.429074 1.96326 0.00915114 45 4 1 -2.78317e-09 
1.49396 -0.673602 0.00870808 0.0025 0.546361 0.429052 1.96323 0.00915145 46 4 1 -4.13639e-09 
1.49854 -0.673655 0.0102153 0.0025 0.54634 0.429027 1.96319 0.00915182 47 4 1 -3.68904e-09 
-0.496887 -0.673712 0.0119218 0.0025 0.546314 0.428998 1.96315 0.00915224 48 4 1 -4.62239e-09 
-0.492311 -0.673775 0.0137734 0.0025 0.546284 0.428964 1.9631 0.00915274 49 4 1 -5.98653e-09 
-0.487734 -0.673843 0.0157817 0.0025 0.54625 0.428925 1.96305 0.00915332 50 4 1 -6.11298e-09 
-0.483157 -0.673918 0.0179454 0.0025 0.546211 0.428881 1.96298 0.00915398 51 4 1 -5.55503e-09 
-0.47858 -0.674002 0.0202283 0.0025 0.546166 0.42883 1.96291 0.00915473 52 4 1 -6.52493e-09 
-0.474003 -0.674096 0.0225911 0.0025 0.546115 0.428774 1.96284 0.00915558 53 4 1 -7.37149e-09 
-0.469425 -0.6742 0.0250379 0.0025 0.546059 0.428711 1.96275 0.00915652 54 4 1 -6.54157e-09 
-0.464846 -0.674317 0.0276289 0.0025 0.545997 0.428642 1.96266 0.00915756 55 4 1 -5.87833e-09 
-0.460267 -0.674444 0.0303312 0.0025 0.545929 0.428566 1.96256 0.0091587 56 4 1 -6.45916e-09 
-0.455687 -0.674582 0.0328484 0.0025 0.545856 0.428485 1.96245 0.00915993 57 4 1 -5.49144e-09 
-0.451107 -0.674729 0.0347693 0.0025 0.545778 0.428399 1.96233 0.00916123 58 4 1 -1.762e-09 
-0.446526 -0.674881 0.0357256 0.0025 0.545699 0.428311 1.96221 0.00916257 59 4 1 1.54684e-09 
-0.441944 -0.675035 0.0354341 0.0025 0.54562 0.428223 1.9621 0.00916389 60 4 1 5.12034e-09 
-0.437362 -0.675185 0.0338766 0.0025 0.545545 0.428141 1.96199 0.00916515 61 4 1 9.87816e-09 
-0.432779 -0.675321 0.0305892 0.0025 0.545478 0.428067 1.96189 0.00916627 62 4 1 1.61077e-08 
-0.428196 -0.675434 0.0250636 0.0025 0.545425 0.428008 1.96181 0.00916717 63 4 1 2.33893e-08 
-0.423612 -0.675512 0.0166414 0.0025 0.54539 0.427969 1.96175 0.00916775 64 4 1 2.30458e-08 
-0.419028 -0.675537 0.00591688 0.0025 0.545375 0.427952 1.96173 0.00916801 65 5 1 3.53162e-08 
-0.414444 -0.67558 0.00284971 0.0025 0.545391 0.427974 1.96175 0.00916774 66 4 1 1.63734e-07 
-0.40986 -0.675333 -0.112506 0.0025 0.545541 0.428142 1.96196 0.00916521 67 4 1 2.63173e-07 
-0.405279 -0.674641 -0.193455 0.0025 0.545903 0.428541 1.96248 0.00915913 68 4 1 2.91711e-07 
-0.400701 -0.67359 -0.286878 0.0025 0.546497 0.429201 1.96333 0.00914919 69 4 1 5.5334e-07 
-0.39613 -0.671792 -0.545117 0.0025 0.547506 0.430323 1.96477 0.00913233 70 4 1 9.76682e-07 
-0.391569 -0.668606 -0.924609 0.0025 0.549197 0.432189 1.96719 0.00910421 71 4 1 1.22203e-06 
-0.387026 -0.663844 -1.26459 0.0025 0.551648 0.434884 1.9707 0.00906376 72 4 1 1.17507e-06 
-0.382505 -0.657975 -1.46844 0.0025 0.554703 0.438253 1.97506 0.00901384 73 4 1 1.114e-06 
-0.378012 -0.651319 -1.64605 0.0025 0.558206 0.44213 1.98004 0.00895727 74 4 1 1.19811e-06 
-0.373548 -0.643966 -1.82437 0.0025 0.562118 0.446475 1.98557 0.00889494 75 4 1 1.37998e-06 
-0.369117 -0.635853 -2.04079 0.0025 0.566461 0.451314 1.99169 0.00882674 76 4 1 1.57603e-06 
-0.364721 -0.626914 -2.25532 0.0025 0.571258 0.456672 1.99842 0.00875261 77 4 1 1.70361e-06 
-0.360364 -0.617242 -2.45234 0.0025 0.576479 0.462522 2.00571 0.00867335 78 4 1 1.70547e-06 
-0.356047 -0.607023 -2.57554 0.0025 0.582025 0.468757 2.0134 0.00859069 79 4 1 1.60838e-06 
-0.351773 -0.596525 -2.64392 0.0025 0.587765 0.475235 2.02132 0.00850681 80 4 1 1.46973e-06 
-0.34754 -0.586002 -2.65186 0.0025 0.593576 0.481822 2.02929 0.00842352 81 4 1 1.33948e-06 
-0.343349 -0.575616 -2.64087 0.0025 0.599374 0.488421 2.0372 0.00834204 82 4 1 1.2518e-06 
-0.339198 -0.565384 -2.62064 0.0025 0.60512 0.494987 2.04498 0.00826282 83 4 1 1.16405e-06 
-0.335086 -0.5554 -2.58473 0.0025 0.610787 0.501487 2.05262 0.00818616 84 4 1 1.0809e-06 
-0.331012 -0.545656 -2.5433 0.0025 0.616355 0.507898 2.06008 0.00811221 85 4 1 1.03263e-06 
-0.326974 -0.536174 -2.51418 0.0025 0.621828 0.514224 2.06738 0.00804081 86 4 1 9.98692e-07 
-0.322971 -0.526884 -2.48648 0.0025 0.627219 0.520474 2.07453 0.0079717 87 4 1 9.39176e-07 
-0.319002 -0.5178 -2.44374 0.0025 0.63252 0.526644 2.08152 0.00790489 88 4 1 9.21667e-07 
-0.315066 -0.508925 -2.43247 0.0025 0.637749 0.532749 2.08839 0.00784008 89 4 1 9.26279e-07 
-0.311162 -0.50016 -2.42048 0.0025 0.642934 0.538824 2.09516 0.00777685 90 4 1 9.23925e-07 
-0.307289 -0.491521 -2.42117 0.0025 0.648093 0.544888 2.10187 0.00771494 91 4 1 9.49857e-07 
-0.303447 -0.482909 -2.43905 0.0025 0.653257 0.550976 2.10855 0.00765396 92 4 1 9.89723e-07 
-0.299635 -0.474296 -2.47233 0.0025 0.658458 0.557129 2.11525 0.0075935 93 4 1 1.04462e-06 
-0.295853 -0.465629 -2.5267 0.0025 0.663732 0.563389 2.12201 0.00753316 94 4 1 1.10638e-06 
-0.292101 -0.456809 -2.59696 0.0025 0.669111 0.56979 2.12887 0.0074726 95 4 1 1.10771e-06 
-0.28838 -0.447906 -2.63182 0.0025 0.674583 0.576323 2.13581 0.00741199 96 4 1 1.11216e-06 
-0.284689 -0.438954 -2.68735 0.0025 0.680134 0.582975 2.14283 0.00735149 97 4 1 1.15921e-06 
-0.281029 -0.429866 -2.75474 0.0025 0.685785 0.589766 2.14993 0.00729091 98 4 1 1.11885e-06 
-0.277398 -0.42073 -2.76505 0.0025 0.691498 0.596654 2.15708 0.00723067 99 4 1 1.08276e-06 
-0.273798 -0.411641 -2.79572 0.0025 0.697241 0.603602 2.16422 0.00717112 100 4 1 1.08455e-06 
-0.270227 -0.402531 -2.8174 0.0025 0.703015 0.61061 2.17138 0.00711223 101 4 1 1.0351e-06 
-0.266685 -0.393493 -2.81114 0.0025 0.708791 0.617645 2.17849 0.00705427 102 4 1 1.03199e-06 
-0.263173 -0.384528 -2.84073 0.0025 0.714573 0.62471 2.18558 0.00699719 103 4 1 1.02363e-06 
-0.259688 -0.375585 -2.84222 0.0025 0.720363 0.631807 2.19265 0.00694095 104 4 1 9.81703e-07 
-0.256232 -0.366728 -2.84209 0.0025 0.72614 0.638911 2.19967 0.00688572 105 4 1 9.647e-07 
-0.252802 -0.35796 -2.84413 0.0025 0.731903 0.646022 2.20663 0.00683151 106 4 1 9.6669e-07 
-0.2494 -0.349228 -2.86282 0.0025 0.737663 0.653151 2.21356 0.00677816 107 4 1 9.26756e-07 
-0.246024 -0.340571 -2.84086 0.0025 0.743405 0.660278 2.22044 0.00672581 108 4 1 8.9497e-07 
-0.242674 -0.332056 -2.84126 0.0025 0.749117 0.667393 2.22725 0.00667453 109 4 1 9.41046e-07 
-0.239349 -0.323525 -2.88276 0.0025 0.754842 0.674545 2.23404 0.0066239 110 4 1 9.08137e-07 
-0.23605 -0.315064 -2.86261 0.0025 0.760568 0.681717 2.2408 0.00657403 111 4 1 8.53742e-07 
-0.232775 -0.306714 -2.85653 0.0025 0.766261 0.688873 2.2475 0.00652519 112 4 1 8.70308e-07 
-0.229525 -0.298437 -2.87264 0.0025 0.771947 0.69604 2.25415 0.00647713 113 4 1 8.86002e-07 
-0.226298 -0.290148 -2.89728 0.0025 0.777644 0.70324 2.26079 0.00642968 114 4 1 8.21135e-07 
-0.223095 -0.28195 -2.85713 0.0025 0.783314 0.710428 2.26737 0.00638313 115 4 1 7.74384e-07 
-0.219915 -0.27393 -2.84545 0.0025 0.788936 0.71758 2.27386 0.00633765 116 4 1 8.66094e-07 
-0.216757 -0.265856 -2.92062 0.0025 0.794586 0.724785 2.28036 0.00629258 117 4 1 8.45895e-07 
-0.213622 -0.257778 -2.89822 0.0025 0.800259 0.732035 2.28686 0.00624798 118 4 1 7.33295e-07 
-0.210509 -0.249884 -2.85431 0.0025 0.805873 0.739237 2.29327 0.00620445 119 4 1 7.70104e-07 
-0.207418 -0.242047 -2.89163 0.0025 0.811469 0.746436 2.29962 0.00616166 120 4 1 8.2383e-07 
-0.204347 -0.234191 -2.92463 0.0025 0.817098 0.753693 2.30599 0.00611921 121 4 1 7.65441e-07 
-0.201298 -0.226369 -2.90201 0.0025 0.82272 0.76096 2.31232 0.0060774 122 4 1 6.89029e-07 
-0.19827 -0.218719 -2.86055 0.0025 0.828284 0.768175 2.31856 0.00603658 123 4 1 7.13222e-07 
-0.195262 -0.21114 -2.88404 0.0025 0.833822 0.775379 2.32475 0.00599648 124 4 1 7.93017e-07 
-0.192273 -0.203514 -2.94689 0.0025 0.839406 0.782657 2.33097 0.00595659 125 4 1 7.57157e-07 
-0.189305 -0.195867 -2.93265 0.0025 0.845009 0.789976 2.33718 0.00591709 126 4 1 6.25896e-07 
-0.186356 -0.188421 -2.85163 0.0025 0.850536 0.79722 2.34328 0.00587865 127 4 1 6.56661e-07 
-0.183426 -0.181084 -2.8914 0.0025 0.856022 0.804434 2.34931 0.00584097 128 4 1 7.81169e-07 
-0.180515 -0.173655 -2.97414 0.0025 0.861577 0.81175 2.3554 0.00580331 129 4 1 7.32964e-07 
-0.177623 -0.166154 -2.95847 0.0025 0.867162 0.819119 2.3615 0.00576594 130 4 1 5.42106e-07 
-0.174749 -0.158949 -2.82255 0.0025 0.872631 0.82636 2.36744 0.0057298 131 4 1 5.68369e-07 
-0.171893 -0.151935 -2.85845 0.0025 0.878022 0.833525 2.37328 0.00569462 132 4 1 7.917e-07 
-0.169055 -0.144721 -3.01173 0.0025 0.883526 0.84085 2.37922 0.00565914 133 4 1 7.56758e-07 
-0.166234 -0.137344 -3.00051 0.0025 0.889112 0.848292 2.38523 0.00562359 134 4 1 4.87476e-07 
-0.163431 -0.130277 -2.82428 0.0025 0.894562 0.855578 2.39106 0.00558933 135 4 1 4.77037e-07 
-0.160645 -0.123518 -2.82342 0.0025 0.899883 0.862722 2.39673 0.00555628 136 4 1 7.60945e-07 
-0.157875 -0.116527 -3.02496 0.0025 0.905324 0.870037 2.40252 0.00552289 137 4 1 7.9013e-07 
-0.155122 -0.109289 -3.05686 0.0025 0.910904 0.877542 2.40844 0.00548905 138 4 1 4.56948e-07 
-0.152385 -0.102339 -2.83591 0.0025 0.916344 0.884881 2.41418 0.00545646 139 4 1 3.37253e-07 
-0.149665 -0.0958544 -2.74265 0.0025 0.921562 0.891955 2.41966 0.00542557 140 4 1 6.47672e-07 
-0.14696 -0.089246 -2.95181 0.0025 0.926842 0.899126 2.4252 0.00539466 141 4 1 8.27681e-07 
-0.14427 -0.0822622 -3.08758 0.0025 0.932339 0.906591 2.43095 0.00536286 142 4 1 5.62525e-07 
-0.141597 -0.0753409 -2.9356 0.0025 0.937815 0.914043 2.43665 0.00533154 143 4 1 2.97703e-07 
-0.138939 -0.0689081 -2.74222 0.0025 0.94305 0.9212 2.44208 0.00530194 144 4 1 4.63237e-07 
-0.136295 -0.0626151 -2.84563 0.0025 0.948212 0.928278 2.44741 0.00527308 145 4 1 7.57269e-07 
-0.133666 -0.0560003 -3.0575 0.0025 0.953563 0.93562 2.45293 0.00524349 146 4 1 6.69399e-07 
-0.131051 -0.0491655 -3.03225 0.0025 0.959014 0.9431 2.45854 0.00521369 147 4 1 2.3038e-07 
-0.128452 -0.042845 -2.66827 0.0025 0.964197 0.950236 2.46384 0.00518566 148 4 1 1.77355e-07 
-0.125866 -0.0370729 -2.61075 0.0025 0.969099 0.957031 2.46882 0.00515943 149 4 1 8.41268e-07 
-0.123292 -0.0308405 -3.17494 0.0025 0.974292 0.964228 2.47412 0.00513193 150 4 1 8.7234e-07 
-0.120734 -0.0238138 -3.16066 0.0025 0.979776 0.971789 2.47971 0.00510321 151 4 1 -4.42896e-07 
-0.118189 -0.018169 -1.95394 0.0025 0.984479 0.978312 2.48443 0.00507883 152 4 1 -3.03906e-07 
-0.115655 -0.0140666 -2.13585 0.0025 0.988574 0.984105 2.48851 0.00505779 153 4 1 2.1558e-06 
-0.113131 -0.0073281 -4.32951 0.0025 0.994124 0.991858 2.49415 0.00502956 154 4 1 1.48694e-06 
-0.110625 0.0016178 -3.60431 0.0025 1.00048 1.00058 2.5006 0.00499761 155 4 1 -2.68185e-06 
-0.108134 0.0054838 -0.060047 0.0025 1.00406 1.0056 2.50408 0.00497978 156 4 1 -1.40231e-06 
-0.105646 0.00597162 -1.06597 0.0025 1.00598 1.0085 2.5059 0.00497028 157 4 1 3.39698e-06 
-0.103163 0.0122344 -4.66332 0.0025 1.01072 1.01513 2.51072 0.00494699 158 4 1 1.5038e-06 
-0.100698 0.020735 -3.0134 0.0025 1.01663 1.02326 2.51667 0.0049182 159 4 1 -2.78676e-06 
-0.0982452 0.023579 -0.218704 0.0025 1.01958 1.02743 2.51952 0.00490396 160 4 1 -1.76958e-06 
-0.0957945 0.0240044 -0.163138 0.0025 1.02032 1.02854 2.52022 0.00490044 161 4 1 -3.38196e-07 
-0.0933448 0.0242565 -0.0273049 0.0025 1.0205 1.0288 2.5204 0.00489957 162 3 1 -4.37195e-07 
-0.0908949 0.0239822 0.195703 0.0025 1.02017 1.02834 2.52008 0.00490114 163 4 1 -4.05264e-07 
-0.0884437 0.0231537 0.473446 0.0025 1.01936 1.02719 2.51927 0.00490506 164 4 1 -3.53435e-07 
-0.0859899 0.0217868 0.728487 0.0025 1.01811 1.02544 2.51804 0.00491107 165 4 1 -2.50632e-07 
-0.0835326 0.0199923 0.918174 0.0025 1.01653 1.02322 2.51647 0.0049187 166 4 1 -1.31892e-07 
-0.0810712 0.0179154 1.03418 0.0025 1.01474 1.0207 2.51469 0.00492737 167 4 1 -2.02864e-08 
-0.0786052 0.0156995 1.08115 0.0025 1.01286 1.01806 2.51282 0.00493652 168 4 1 7.05702e-08 
-0.0761346 0.0134695 1.07051 0.0025 1.01099 1.01543 2.51096 0.00494566 169 4 1 1.36046e-07 
-0.0736596 0.011324 1.01602 0.0025 1.0092 1.01292 2.50918 0.0049544 170 4 1 1.7712e-07 
-0.0711802 0.0093344 0.931117 0.0025 1.00756 1.01061 2.50754 0.00496249 171 4 1 1.97459e-07 
-0.0686971 0.00754677 0.827793 0.0025 1.00609 1.00855 2.50608 0.00496973 172 4 1 2.0165e-07 
-0.0662105 0.00598539 0.716042 0.0025 1.00482 1.00676 2.50481 0.00497603 173 4 1 1.94161e-07 
-0.063721 0.00465683 0.60376 0.0025 1.00374 1.00524 2.50373 0.00498139 174 4 1 1.78884e-07 
-0.0612291 0.00355408 0.496829 0.0025 1.00284 1.00399 2.50284 0.00498582 175 4 1 1.58996e-07 
-0.0587352 0.0026604 0.399285 0.0025 1.00212 1.00298 2.50212 0.0049894 176 4 1 1.36987e-07 
-0.0562397 0.00195291 0.313538 0.0025 1.00156 1.00218 2.50155 0.00499223 177 4 1 1.14732e-07 
-0.053743 0.00140556 0.240632 0.0025 1.00112 1.00157 2.50111 0.00499442 178 4 1 9.35704e-08 
-0.0512453 0.000991657 0.180531 0.0025 1.00079 1.00111 2.50078 0.00499607 179 4 1 7.4385e-08 
-0.0487469 0.000685663 0.132412 0.0025 1.00054 1.00076 2.50054 0.00499729 180 4 1 5.76754e-08 
-0.046248 0.000464492 0.0949498 0.0025 1.00037 1.00052 2.50037 0.00499816 181 4 1 4.36323e-08 
-0.0437487 0.000308194 0.0665639 0.0025 1.00024 1.00034 2.50024 0.00499878 182 4 1 3.22123e-08 
-0.0412492 0.00020021 0.0456158 0.0025 1.00016 1.00022 2.50016 0.00499921 183 4 1 2.32096e-08 
-0.0387495 0.000127281 0.0305524 0.0025 1.0001 1.00014 2.5001 0.0049995 184 4 1 1.63208e-08 
-0.0362497 7.91447e-05 0.0199945 0.0025 1.00006 1.00009 2.50006 0.00499969 185 4 1 1.11997e-08 
-0.0337498 4.81041e-05 0.0127805 0.0025 1.00004 1.00005 2.50004 0.00499981 186 4 1 7.49882e-09 
-0.0312499 2.85564e-05 0.00797523 0.0025 1.00002 1.00003 2.50002 0.00499989 187 4 1 4.89758e-09 
-0.0287499 1.65416e-05 0.00485532 0.0025 1.00001 1.00002 2.50001 0.00499993 188 4 1 3.11897e-09 
-0.02625 9.33899e-06 0.0028815 0.0025 1.00001 1.00001 2.50001 0.00499996 189 4 1 1.93579e-09 
-0.02375 5.13172e-06 0.00166533 0.0025 1 1.00001 2.5 0.00499998 190 4 1 1.17011e-09 
-0.02125 2.73973e-06 0.000936051 0.0025 1 1 2.5 0.00499999 191 4 1 6.88221e-10 
-0.01875 1.41803e-06 0.000510869 0.0025 1 1 2.5 0.00499999 192 4 1 3.93424e-10 
-0.01625 7.09552e-07 0.000270163 0.0025 1 1 2.5 0.005 193 4 1 2.18262e-10 
-0.01375 3.42008e-07 0.000138068 0.0025 1 1 2.5 0.005 194 4 1 1.17285e-10 
-0.01125 1.58036e-07 6.795e-05 0.0025 1 1 2.5 0.005 195 4 1 6.08969e-11 
-0.00875 6.95452e-08 3.20437e-05 0.0025 1 1 2.5 0.005 196 4 1 3.04773e-11 
-0.00625 2.88272e-08 1.43318e-05 0.0025 1 1 2.5 0.005 197 4 1 1.47268e-11 
-0.00375 1.0855e-08 5.83207e-06 0.0025 1 1 2.5 0.005 198 4 1 7.08543e-12 
-0.00125 2.7144e-09 1.54329e-06 0.0025 1 1 2.5 0.005 199 5 1 4.02552e-12 
0.00125 -2.71439e-09 -1.54329e-06 0.0025 1 1 2.5 0.005 200 4 1 4.02552e-12 
0.00375 -1.0855e-08 -5.83207e-06 0.0025 1 1 2.5 0.005 201 4 1 7.08543e-12 
0.00625 -2.88272e-08 -1.43318e-05 0.0025 1 1 2.5 0.005 202 4 1 1.47268e-11 
0.00875 -6.95452e-08 -3.20437e-05 0.0025 1 1 2.5 0.005 203 4 1 3.04773e-11 
0.01125 -1.58036e-07 -6.795e-05 0.0025 1 1 2.5 0.005 204 4 1 6.08969e-11 
0.01375 -3.42008e-07 -0.000138068 0.0025 1 1 2.5 0.005 205 4 1 1.17285e-10 
0.01625 -7.09552e-07 -0.000270163 0.0025 1 1 2.5 0.005 206 4 1 2.18262e-10 
0.01875 -1.41803e-06 -0.000510869 0.0025 1 1 2.5 0.00499999 207 4 1 3.93424e-10 
0.02125 -2.73973e-06 -0.000936051 0.0025 1 1 2.5 0.00499999 208 4 1 6.88221e-10 
0.02375 -5.13172e-06 -0.00166533 0.0025 1 1.00001 2.5 0.00499998 209 4 1 1.17011e-09 
0.02625 -9.33899e-06 -0.0028815 0.0025 1.00001 1.00001 2.50001 0.00499996 210 4 1 1.93579e-09 
0.0287499 -1.65416e-05 -0.00485532 0.0025 1.00001 1.00002 2.50001 0.00499993 211 4 1 3.11897e-09 
0.0312499 -2.85564e-05 -0.00797523 0.0025 1.00002 1.00003 2.50002 0.00499989 212 4 1 4.89758e-09 
0.0337498 -4.81041e-05 -0.0127805 0.0025 1.00004 1.00005 2.50004 0.00499981 213 4 1 7.49882e-09 
0.0362497 -7.91447e-05 -0.0199945 0.0025 1.00006 1.00009 2.50006 0.00499969 214 4 1 1.11997e-08 
0.0387495 -0.000127281 -0.0305524 0.0025 1.0001 1.00014 2.5001 0.0049995 215 4 1 1.63208e-08 
