# Time [s]: 0.323952
# Columns: pos [m], vel [m/s], acc [m/s^2], mass [kg], dens [kg/m^3], pres [Pa], ene [J/kg], sml [m], id, neighbor, alpha, gradh, ...additional?
1.28418 -0.673092 0.000347858 0.0025 0.511051 0.432727 2.1525 0.00978375 0 4 1 -0.000134226 
1.28896 -0.673093 0.000361601 0.0025 0.536908 0.42619 1.95004 0.00931258 1 4 1 0.000179252 
1.29349 -0.673095 0.000375336 0.0025 0.548238 0.430859 1.9685 0.00912013 2 3 1 -1.90586e-05 
1.29808 -0.673096 0.000391288 0.0025 0.545972 0.429194 1.96464 0.00915798 3 5 1 3.48578e-06 
1.30265 -0.673097 0.000409973 0.0025 0.54637 0.429349 1.96458 0.00915131 4 4 1 -1.38718e-07 
1.30723 -0.673099 0.000430775 0.0025 0.54638 0.429318 1.96435 0.00915114 5 4 1 1.43684e-07 
1.3118 -0.673101 0.000452546 0.0025 0.546402 0.429316 1.96429 0.00915077 6 4 1 -3.55968e-09 
1.31638 -0.673103 0.000474947 0.0025 0.546415 0.429313 1.96422 0.00915056 7 4 1 8.18367e-09 
1.32095 -0.673105 0.000499105 0.0025 0.546428 0.429311 1.96417 0.00915033 8 4 1 4.70831e-09 
1.32553 -0.673107 0.000526872 0.0025 0.54644 0.42931 1.96412 0.00915014 9 4 1 5.41145e-09 
1.3301 -0.673109 0.000559217 0.0025 0.54645 0.429308 1.96408 0.00914996 10 4 1 -2.3151e-09 
1.33468 -0.673112 0.0005952 0.0025 0.54646 0.429307 1.96403 0.0091498 11 4 1 4.6439e-09 
1.33925 -0.673115 0.00063268 0.0025 0.546469 0.429305 1.96399 0.00914964 12 4 1 2.76129e-09 
1.34383 -0.673118 0.000670434 0.0025 0.546477 0.429303 1.96396 0.00914951 13 4 1 3.47944e-09 
1.3484 -0.673121 0.000709936 0.0025 0.546484 0.429302 1.96393 0.0091494 14 4 1 2.02198e-09 
1.35298 -0.673124 0.000754958 0.0025 0.54649 0.4293 1.9639 0.0091493 15 4 1 -1.69171e-09 
1.35755 -0.673128 0.00080873 0.0025 0.546496 0.429298 1.96386 0.00914921 16 4 1 4.77523e-09 
1.36213 -0.673132 0.000870744 0.0025 0.5465 0.429295 1.96384 0.00914913 17 4 1 1.33982e-09 
1.3667 -0.673136 0.000936315 0.0025 0.546504 0.429293 1.96381 0.00914906 18 4 1 -1.3401e-09 
1.37128 -0.67314 0.0010003 0.0025 0.546508 0.42929 1.96379 0.009149 19 4 1 2.55873e-09 
1.37585 -0.673145 0.00106264 0.0025 0.546511 0.429288 1.96377 0.00914895 20 4 1 1.03161e-09 
1.38043 -0.67315 0.00113068 0.0025 0.546513 0.429285 1.96375 0.00914891 21 4 1 1.0395e-09 
1.385 -0.673156 0.00121488 0.0025 0.546515 0.429282 1.96372 0.00914888 22 4 1 8.68993e-10 
1.38957 -0.673162 0.0013203 0.0025 0.546516 0.429279 1.96371 0.00914886 23 4 1 -4.05066e-10 
1.39415 -0.673168 0.00144103 0.0025 0.546517 0.429275 1.96369 0.00914885 24 4 1 1.21461e-09 
1.39872 -0.673175 0.00156349 0.0025 0.546517 0.429271 1.96367 0.00914885 25 3 1 4.72692e-10 
1.4033 -0.673183 0.00167721 0.0025 0.546516 0.429267 1.96365 0.00914886 26 4 1 -6.05993e-10 
1.40787 -0.673191 0.00178446 0.0025 0.546516 0.429262 1.96363 0.00914887 27 4 1 9.87705e-10 
1.41245 -0.673199 0.00190057 0.0025 0.546514 0.429258 1.96362 0.00914889 28 4 1 6.02383e-10 
1.41702 -0.673209 0.00204418 0.0025 0.546512 0.429252 1.9636 0.00914892 29 4 1 -1.10358e-09 
1.4216 -0.673219 0.00222504 0.0025 0.54651 0.429247 1.96358 0.00914896 30 4 1 6.96928e-11 
1.42617 -0.67323 0.00243888 0.0025 0.546507 0.429241 1.96356 0.00914901 31 4 1 1.43632e-09 
1.43074 -0.673242 0.00267268 0.0025 0.546503 0.429234 1.96355 0.00914907 32 4 1 -1.45738e-09 
1.43532 -0.673255 0.00291526 0.0025 0.546499 0.429227 1.96353 0.00914915 33 4 1 -1.47433e-09 
1.43989 -0.673269 0.00316448 0.0025 0.546494 0.429219 1.96351 0.00914923 34 4 1 1.43034e-09 
1.44447 -0.673284 0.0034269 0.0025 0.546488 0.42921 1.96349 0.00914933 35 4 1 -9.48485e-10 
1.44904 -0.673301 0.00371378 0.0025 0.546482 0.429201 1.96347 0.00914944 36 4 1 -1.69617e-09 
1.45362 -0.673319 0.00403903 0.0025 0.546474 0.42919 1.96345 0.00914956 37 4 1 4.96732e-10 
1.45819 -0.67334 0.00441784 0.0025 0.546466 0.429179 1.96343 0.0091497 38 4 1 -9.81138e-10 
1.46277 -0.673362 0.00485773 0.0025 0.546456 0.429167 1.96341 0.00914986 39 4 1 -1.96145e-09 
1.46734 -0.673386 0.00534081 0.0025 0.546446 0.429154 1.96339 0.00915004 40 4 1 -6.22729e-10 
1.47192 -0.673413 0.00581606 0.0025 0.546434 0.429139 1.96336 0.00915024 41 4 1 -8.87044e-10 
1.47649 -0.673443 0.00623004 0.0025 0.54642 0.429123 1.96334 0.00915046 42 4 1 -1.86102e-09 
1.48107 -0.673478 0.00659668 0.0025 0.546406 0.429105 1.96331 0.00915071 43 4 1 -1.23466e-09 
1.48564 -0.673518 0.00704789 0.0025 0.54639 0.429087 1.96328 0.00915097 44 4 1 -5.89668e-10 
1.49022 -0.673563 0.00778468 0.0025 0.546373 0.429066 1.96325 0.00915126 45 4 1 -2.70098e-09 
1.49479 -0.673613 0.0089354 0.0025 0.546354 0.429044 1.96322 0.00915158 46 4 1 -4.09304e-09 
1.49937 -0.673668 0.0104607 0.0025 0.546331 0.429018 1.96318 0.00915195 47 4 1 -3.7513e-09 
-0.496054 -0.673727 0.0122253 0.0025 0.546305 0.428988 1.96313 0.00915239 48 4 1 -4.77263e-09 
-0.491477 -0.673792 0.0141458 0.0025 0.546275 0.428953 1.96309 0.00915291 49 4 1 -6.17341e-09 
-0.486901 -0.673863 0.0162261 0.0025 0.546239 0.428913 1.96303 0.0091535 50 4 1 -6.316e-09 
-0.482324 -0.673941 0.0184744 0.0025 0.546199 0.428868 1.96297 0.00915418 51 4 1 -5.77726e-09 
-0.477747 -0.674027 0.0208544 0.0025 0.546152 0.428816 1.9629 0.00915495 52 4 1 -6.75064e-09 
-0.473169 -0.674124 0.0233087 0.0025 0.5461 0.428757 1.96282 0.00915583 53 4 1 -7.54163e-09 
-0.468591 -0.674232 0.0258029 0.0025 0.546042 0.428693 1.96273 0.0091568 54 4 1 -6.56368e-09 
-0.464012 -0.674351 0.0283703 0.0025 0.545979 0.428622 1.96263 0.00915787 55 4 1 -5.70863e-09 
-0.459433 -0.674482 0.0310154 0.0025 0.545909 0.428545 1.96253 0.00915903 56 4 1 -6.15414e-09 
-0.454853 -0.674623 0.0334736 0.0025 0.545835 0.428462 1.96242 0.00916028 57 4 1 -5.0735e-09 
-0.450273 -0.674772 0.035284 0.0025 0.545756 0.428375 1.9623 0.0091616 58 4 1 -1.14918e-09 
-0.445692 -0.674925 0.0360338 0.0025 0.545676 0.428286 1.96218 0.00916295 59 4 1 2.48714e-09 
-0.44111 -0.675079 0.0353291 0.0025 0.545597 0.428199 1.96206 0.00916427 60 4 1 6.57706e-09 
-0.436527 -0.675227 0.0331323 0.0025 0.545524 0.428118 1.96196 0.0091655 61 4 1 1.15653e-08 
-0.431944 -0.675358 0.0294059 0.0025 0.54546 0.428048 1.96186 0.00916657 62 4 1 1.79915e-08 
-0.427361 -0.675464 0.0228809 0.0025 0.545411 0.427993 1.96179 0.0091674 63 4 1 2.61877e-08 
-0.422777 -0.67553 0.0130254 0.0025 0.545383 0.427961 1.96174 0.00916787 64 4 1 1.70516e-08 
-0.418193 -0.675548 0.0127594 0.0025 0.545371 0.427949 1.96172 0.00916808 65 5 1 6.28934e-08 
-0.413609 -0.675567 -0.0253775 0.0025 0.545412 0.427998 1.96178 0.00916739 66 4 1 2.04851e-07 
-0.409026 -0.675176 -0.140545 0.0025 0.545619 0.428228 1.96207 0.0091639 67 4 1 2.65274e-07 
-0.404445 -0.674391 -0.211202 0.0025 0.54604 0.428692 1.96267 0.00915684 68 4 1 3.36765e-07 
-0.399869 -0.673203 -0.340477 0.0025 0.546724 0.429455 1.96365 0.00914538 69 4 1 6.73681e-07 
-0.3953 -0.671055 -0.648733 0.0025 0.547906 0.430766 1.96534 0.00912566 70 4 1 1.08437e-06 
-0.390743 -0.667392 -1.03714 0.0025 0.549824 0.432879 1.96809 0.00909383 71 4 1 1.23312e-06 
-0.386206 -0.662235 -1.33561 0.0025 0.552474 0.435794 1.97188 0.0090502 72 4 1 1.15056e-06 
-0.381693 -0.656125 -1.52342 0.0025 0.555676 0.439328 1.97644 0.00899806 73 4 1 1.129e-06 
-0.377208 -0.649251 -1.69917 0.0025 0.559305 0.44335 1.9816 0.00893967 74 4 1 1.25102e-06 
-0.372753 -0.641671 -1.8893 0.0025 0.563349 0.447846 1.98731 0.0088755 75 4 1 1.45368e-06 
-0.368332 -0.633285 -2.1139 0.0025 0.567839 0.452852 1.99363 0.00880531 76 4 1 1.63538e-06 
-0.363947 -0.624083 -2.32476 0.0025 0.572785 0.458382 2.00056 0.00872928 77 4 1 1.73037e-06 
-0.359602 -0.614175 -2.50784 0.0025 0.578134 0.464381 2.00801 0.00864851 78 4 1 1.69982e-06 
-0.355299 -0.603815 -2.61267 0.0025 0.583776 0.47073 2.01583 0.00856494 79 4 1 1.57711e-06 
-0.351037 -0.593245 -2.66045 0.0025 0.58957 0.477278 2.0238 0.00848076 80 4 1 1.43349e-06 
-0.346818 -0.582719 -2.65771 0.0025 0.595403 0.483899 2.03179 0.00839767 81 4 1 1.32154e-06 
-0.342639 -0.572347 -2.64766 0.0025 0.601209 0.490515 2.03969 0.00831657 82 4 1 1.23026e-06 
-0.338501 -0.562146 -2.61689 0.0025 0.606953 0.497086 2.04746 0.00823787 83 4 1 1.14278e-06 
-0.334401 -0.552206 -2.58215 0.0025 0.612608 0.503581 2.05507 0.00816183 84 4 1 1.0677e-06 
-0.330339 -0.542514 -2.53824 0.0025 0.618162 0.509985 2.0625 0.00808849 85 4 1 1.02767e-06 
-0.326313 -0.533064 -2.51553 0.0025 0.623625 0.516305 2.06977 0.00801764 86 4 1 9.92238e-07 
-0.322321 -0.523811 -2.48311 0.0025 0.629007 0.522553 2.07689 0.00794904 87 4 1 9.29698e-07 
-0.318363 -0.51478 -2.44201 0.0025 0.634299 0.528718 2.08386 0.00788272 88 4 1 9.28405e-07 
-0.314438 -0.505913 -2.43896 0.0025 0.639527 0.53483 2.09071 0.00781828 89 4 1 9.30696e-07 
-0.310545 -0.497165 -2.42406 0.0025 0.644718 0.540918 2.09748 0.00775533 90 4 1 9.36608e-07 
-0.306683 -0.488518 -2.43619 0.0025 0.649891 0.547006 2.1042 0.00769359 91 4 1 9.70849e-07 
-0.302851 -0.479883 -2.45613 0.0025 0.655083 0.553134 2.1109 0.00763262 92 4 1 1.01018e-06 
-0.29905 -0.471225 -2.49625 0.0025 0.660322 0.55934 2.11764 0.00757206 93 4 1 1.08063e-06 
-0.295279 -0.462482 -2.56417 0.0025 0.665652 0.565671 2.12446 0.00751144 94 4 1 1.12097e-06 
-0.291539 -0.453583 -2.6204 0.0025 0.671087 0.572146 2.13138 0.0074506 95 4 1 1.10949e-06 
-0.287828 -0.444637 -2.65674 0.0025 0.676605 0.578744 2.13837 0.00738984 96 4 1 1.14122e-06 
-0.284149 -0.435607 -2.72616 0.0025 0.682213 0.585471 2.14544 0.00732909 97 4 1 1.1662e-06 
-0.280499 -0.426446 -2.77571 0.0025 0.687917 0.592332 2.1526 0.00726832 98 4 1 1.10442e-06 
-0.27688 -0.417302 -2.78065 0.0025 0.693663 0.599271 2.15978 0.00720811 99 4 1 1.09162e-06 
-0.273291 -0.408168 -2.82024 0.0025 0.699439 0.606268 2.16695 0.00714858 100 4 1 1.08019e-06 
-0.269731 -0.399042 -2.82633 0.0025 0.705241 0.613318 2.17412 0.00708978 101 4 1 1.0296e-06 
-0.266201 -0.390008 -2.82658 0.0025 0.711037 0.620387 2.18125 0.00703199 102 4 1 1.04201e-06 
-0.262699 -0.381004 -2.85847 0.0025 0.716843 0.627491 2.18836 0.00697502 103 4 1 1.01977e-06 
-0.259226 -0.372065 -2.852 0.0025 0.722654 0.634622 2.19544 0.00691894 104 4 1 9.75044e-07 
-0.25578 -0.363208 -2.85162 0.0025 0.728446 0.641754 2.20246 0.00686393 105 4 1 9.76144e-07 
-0.252362 -0.354431 -2.86496 0.0025 0.73423 0.6489 2.20944 0.00680985 106 4 1 9.64598e-07 
-0.24897 -0.345683 -2.86951 0.0025 0.74001 0.656061 2.21638 0.00675667 107 4 1 9.08786e-07 
-0.245605 -0.337058 -2.84244 0.0025 0.745758 0.663207 2.22325 0.00670459 108 4 1 9.21129e-07 
-0.242266 -0.328523 -2.8739 0.0025 0.751494 0.67036 2.23007 0.00665341 109 4 1 9.43935e-07 
-0.238952 -0.319956 -2.88739 0.0025 0.757245 0.677552 2.23688 0.00660288 110 4 1 8.84878e-07 
-0.235663 -0.311522 -2.86742 0.0025 0.762978 0.684744 2.24364 0.00655327 111 4 1 8.61535e-07 
-0.232398 -0.303174 -2.87042 0.0025 0.768685 0.691926 2.25034 0.00650462 112 4 1 8.93142e-07 
-0.229158 -0.294867 -2.90145 0.0025 0.774399 0.699137 2.25701 0.00645662 113 4 1 8.72997e-07 
-0.225942 -0.286566 -2.89543 0.0025 0.780114 0.706369 2.26366 0.00640932 114 4 1 7.87714e-07 
-0.222749 -0.278424 -2.84919 0.0025 0.785779 0.713561 2.27022 0.00636311 115 4 1 8.19893e-07 
-0.219578 -0.270383 -2.89316 0.0025 0.791428 0.720756 2.27673 0.0063177 116 4 1 8.85283e-07 
-0.216431 -0.262234 -2.93323 0.0025 0.79712 0.72802 2.28327 0.00627258 117 4 1 7.90579e-07 
-0.213306 -0.254206 -2.88047 0.0025 0.802789 0.735278 2.28975 0.00622828 118 4 1 7.43136e-07 
-0.210202 -0.246342 -2.87807 0.0025 0.808408 0.742496 2.29615 0.00618499 119 4 1 8.09442e-07 
-0.207121 -0.238453 -2.92098 0.0025 0.81404 0.749748 2.30253 0.00614221 120 4 1 8.14258e-07 
-0.20406 -0.230567 -2.93403 0.0025 0.819695 0.757047 2.30892 0.00609983 121 4 1 7.26026e-07 
-0.201021 -0.222792 -2.8853 0.0025 0.825311 0.764317 2.31523 0.00605832 122 4 1 6.94264e-07 
-0.198002 -0.215173 -2.87774 0.0025 0.830875 0.771544 2.32146 0.00601775 123 4 1 7.63775e-07 
-0.195003 -0.207549 -2.92644 0.0025 0.836454 0.778808 2.32768 0.00597761 124 4 1 7.98106e-07 
-0.192024 -0.199857 -2.96515 0.0025 0.842079 0.786146 2.33393 0.00593768 125 4 1 6.934e-07 
-0.189065 -0.192262 -2.89864 0.0025 0.847672 0.793463 2.34012 0.00589851 126 4 1 6.23147e-07 
-0.186125 -0.184888 -2.86762 0.0025 0.853187 0.800703 2.3462 0.00586038 127 4 1 7.29699e-07 
-0.183205 -0.177474 -2.94739 0.0025 0.858721 0.807988 2.35227 0.00582261 128 4 1 7.95547e-07 
-0.180303 -0.169957 -3.00251 0.0025 0.864331 0.815381 2.35841 0.00578482 129 4 1 6.28788e-07 
-0.17742 -0.162538 -2.88788 0.0025 0.869886 0.822722 2.36446 0.00574788 130 4 1 5.18106e-07 
-0.174555 -0.155463 -2.82512 0.0025 0.87531 0.829919 2.37034 0.00571226 131 4 1 7.02319e-07 
-0.171707 -0.148341 -2.95606 0.0025 0.880767 0.837179 2.37624 0.00567687 132 4 1 8.29036e-07 
-0.168878 -0.140966 -3.05279 0.0025 0.886364 0.844628 2.38227 0.00564102 133 4 1 6.12556e-07 
-0.166066 -0.133686 -2.91266 0.0025 0.891919 0.852039 2.38824 0.00560589 134 4 1 4.26624e-07 
-0.163272 -0.12681 -2.79446 0.0025 0.897291 0.85924 2.39397 0.00557233 135 4 1 6.40758e-07 
-0.160494 -0.119952 -2.94894 0.0025 0.902675 0.866475 2.39971 0.0055391 136 4 1 8.4172e-07 
-0.157733 -0.112739 -3.09112 0.0025 0.90824 0.873957 2.40562 0.00550515 137 4 1 6.17096e-07 
-0.154989 -0.105567 -2.95404 0.0025 0.913794 0.881436 2.4115 0.00547169 138 4 1 3.31908e-07 
-0.152261 -0.0988923 -2.75016 0.0025 0.919107 0.888624 2.41709 0.00544006 139 4 1 4.97307e-07 
-0.149549 -0.0923981 -2.85908 0.0025 0.924344 0.895733 2.42258 0.00540924 140 4 1 8.11541e-07 
-0.146852 -0.0855152 -3.07424 0.0025 0.929781 0.903116 2.42828 0.00537761 141 4 1 7.13802e-07 
-0.144171 -0.0784666 -3.03831 0.0025 0.935326 0.910652 2.43406 0.00534573 142 4 1 3.68087e-07 
-0.141506 -0.0717948 -2.80463 0.0025 0.940682 0.917958 2.43963 0.00531529 143 4 1 3.5301e-07 
-0.138856 -0.0655027 -2.78141 0.0025 0.945855 0.925046 2.44498 0.00528622 144 4 1 6.68915e-07 
-0.13622 -0.0590043 -2.99594 0.0025 0.951137 0.932293 2.45043 0.00525686 145 4 1 7.74823e-07 
-0.133599 -0.0521785 -3.10584 0.0025 0.956611 0.9398 2.45607 0.00522678 146 4 1 3.99346e-07 
-0.130993 -0.0455406 -2.81976 0.0025 0.961951 0.947139 2.46155 0.00519777 147 4 1 1.15424e-07 
-0.128401 -0.0396189 -2.57768 0.0025 0.966941 0.954038 2.46663 0.00517095 148 4 1 5.63778e-07 
-0.125822 -0.0336588 -2.93847 0.0025 0.971985 0.961036 2.47177 0.00514411 149 4 1 1.03675e-06 
-0.123257 -0.0267735 -3.34182 0.0025 0.977461 0.968598 2.47736 0.00511529 150 4 1 8.74655e-08 
-0.120707 -0.0203281 -2.43396 0.0025 0.982583 0.975668 2.48254 0.00508863 151 4 1 -6.95779e-07 
-0.118168 -0.0159525 -1.76247 0.0025 0.98674 0.981513 2.48667 0.00506719 152 4 1 1.23509e-06 
-0.115639 -0.0105849 -3.55233 0.0025 0.991602 0.988359 2.49158 0.00504234 153 4 1 2.42138e-06 
-0.113126 -0.00174136 -4.46076 0.0025 0.998058 0.997258 2.49816 0.00500973 154 4 1 -1.32924e-06 
-0.11063 0.00462334 -1.2137 0.0025 1.00294 1.00399 2.50302 0.00498534 155 4 1 -2.71905e-06 
-0.10814 0.00529543 0.0147132 0.0025 1.00495 1.00698 2.50488 0.00497538 156 4 1 1.93833e-06 
-0.105654 0.00894353 -3.71077 0.0025 1.00844 1.01197 2.5084 0.00495817 157 4 1 3.19468e-06 
-0.103182 0.0179648 -4.27338 0.0025 1.01456 1.02041 2.51462 0.00492822 158 4 1 -1.79967e-06 
-0.100726 0.0230629 -0.838541 0.0025 1.0188 1.02631 2.51878 0.00490772 159 4 1 -2.56238e-06 
-0.0982745 0.0236958 -0.0952925 0.0025 1.02007 1.02818 2.51997 0.00490164 160 4 1 -5.34345e-07 
-0.0958243 0.0242365 -0.174412 0.0025 1.02047 1.02876 2.52038 0.0048997 161 3 1 -3.69159e-07 
-0.0933748 0.0242312 0.0663164 0.0025 1.02043 1.02869 2.52033 0.00489992 162 4 1 -4.86166e-07 
-0.0909244 0.0236396 0.365476 0.0025 1.0198 1.02783 2.51972 0.0049029 163 4 1 -3.93066e-07 
-0.0884719 0.0224624 0.642633 0.0025 1.01871 1.02628 2.51863 0.00490818 164 4 1 -2.97924e-07 
-0.0860162 0.020802 0.861237 0.0025 1.01723 1.0242 2.51717 0.00491531 165 4 1 -1.78123e-07 
-0.0835566 0.0188006 1.00585 0.0025 1.0155 1.02176 2.51544 0.00492371 166 4 1 -5.95341e-08 
-0.0810925 0.0166079 1.07735 0.0025 1.01363 1.01913 2.51358 0.00493279 167 4 1 4.07212e-08 
-0.0786238 0.0143579 1.08624 0.0025 1.01173 1.01647 2.5117 0.00494203 168 4 1 1.16018e-07 
-0.0761505 0.0121597 1.04596 0.0025 1.0099 1.01389 2.50987 0.00495101 169 4 1 1.65876e-07 
-0.0736728 0.0100951 0.97035 0.0025 1.00819 1.01149 2.50817 0.0049594 170 4 1 1.93371e-07 
-0.0711911 0.0082191 0.872048 0.0025 1.00664 1.00932 2.50663 0.00496701 171 4 1 2.02968e-07 
-0.0687058 0.00656378 0.761816 0.0025 1.00529 1.00742 2.50528 0.0049737 172 4 1 1.99266e-07 
-0.0662174 0.00514187 0.648336 0.0025 1.00413 1.00579 2.50412 0.00497944 173 4 1 1.8639e-07 
-0.0637263 0.00395096 0.538241 0.0025 1.00316 1.00444 2.50316 0.00498423 174 4 1 1.6778e-07 
-0.0612331 0.00297747 0.436259 0.0025 1.00238 1.00334 2.50237 0.00498813 175 4 1 1.46175e-07 
-0.0587382 0.00220033 0.345405 0.0025 1.00175 1.00246 2.50175 0.00499125 176 4 1 1.23676e-07 
-0.0562419 0.00159421 0.267222 0.0025 1.00127 1.00178 2.50127 0.00499367 177 4 1 1.01826e-07 
-0.0537445 0.00113223 0.202055 0.0025 1.0009 1.00126 2.5009 0.00499551 178 4 1 8.16806e-08 
-0.0512464 0.000788049 0.149339 0.0025 1.00062 1.00088 2.50062 0.00499688 179 4 1 6.38834e-08 
-0.0487477 0.000537389 0.107897 0.0025 1.00043 1.0006 2.50042 0.00499787 180 4 1 4.87367e-08 
-0.0462485 0.000358929 0.0762037 0.0025 1.00028 1.0004 2.50028 0.00499858 181 4 1 3.62771e-08 
-0.0437491 0.000234724 0.0526068 0.0025 1.00019 1.00026 2.50018 0.00499907 182 4 1 2.63495e-08 
-0.0412494 0.000150228 0.0354928 0.0025 1.00012 1.00017 2.50012 0.00499941 183 4 1 1.86761e-08 
-0.0387497 9.40511e-05 0.0233975 0.0025 1.00007 1.0001 2.50007 0.00499963 184 4 1 1.29168e-08 
-0.0362498 5.75616e-05 0.0150654 0.0025 1.00005 1.00006 2.50005 0.00499977 185 4 1 8.71605e-09 
-0.0337499 3.4414e-05 0.00947068 0.0025 1.00003 1.00004 2.50003 0.00499986 186 4 1 5.73693e-09 
-0.0312499 2.00809e-05 0.00580911 0.0025 1.00002 1.00002 2.50002 0.00499992 187 4 1 3.68206e-09 
-0.02875 1.14236e-05 0.00347406 0.0025 1.00001 1.00001 2.50001 0.00499996 188 4 1 2.30329e-09 
-0.02625 6.32724e-06 0.00202371 0.0025 1 1.00001 2.5 0.00499998 189 4 1 1.4034e-09 
-0.02375 3.40648e-06 0.00114687 0.0025 1 1 2.5 0.00499999 190 4 1 8.32204e-10 
-0.02125 1.77903e-06 0.00063135 0.0025 1 1 2.5 0.00499999 191 4 1 4.79763e-10 
-0.01875 8.98907e-07 0.000336955 0.0025 1 1 2.5 0.005 192 4 1 2.68516e-10 
-0.01625 4.37963e-07 0.000173912 0.0025 1 1 2.5 0.005 193 4 1 1.4564e-10 
-0.01375 2.04838e-07 8.65215e-05 0.0025 1 1 2.5 0.005 194 4 1 7.63731e-11 
-0.01125 9.1408e-08 4.13125e-05 0.0025 1 1 2.5 0.005 195 4 1 3.86016e-11 
-0.00875 3.85874e-08 1.88194e-05 0.0025 1 1 2.5 0.005 196 4 1 1.87357e-11 
-0.00625 1.52092e-08 8.09218e-06 0.0025 1 1 2.5 0.005 197 4 1 8.72335e-12 
-0.00375 5.40757e-09 3.15953e-06 0.0025 1 1 2.5 0.005 198 4 1 3.9959e-12 
-0.00125 1.29089e-09 8.10437e-07 0.0025 1 1 2.5 0.005 199 5 1 2.14202e-12 
0.00125 -1.29087e-09 -8.10438e-07 0.0025 1 1 2.5 0.005 200 4 1 2.14203e-12 
0.00375 -5.40756e-09 -3.15953e-06 0.0025 1 1 2.5 0.005 201 4 1 3.99591e-12 
0.00625 -1.52091e-08 -8.09218e-06 0.0025 1 1 2.5 0.005 202 4 1 8.72335e-12 
0.00875 -3.85874e-08 -1.88194e-05 0.0025 1 1 2.5 0.005 203 4 1 1.87357e-11 
0.01125 -9.1408e-08 -4.13125e-05 0.0025 1 1 2.5 0.005 204 4 1 3.86016e-11 
0.01375 -2.04838e-07 -8.65215e-05 0.0025 1 1 2.5 0.005 205 4 1 7.63731e-11 
0.01625 -4.37963e-07 -0.000173912 0.0025 1 1 2.5 0.005 206 4 1 1.4564e-10 
0.01875 -8.98907e-07 -0.000336955 0.0025 1 1 2.5 0.005 207 4 1 2.68516e-10 
0.02125 -1.77903e-06 -0.00063135 0.0025 1 1 2.5 0.00499999 208 4 1 4.79763e-10 
0.02375 -3.40648e-06 -0.00114687 0.0025 1 1 2.5 0.00499999 209 4 1 8.32204e-10 
0.02625 -6.32724e-06 -0.00202371 0.0025 1 1.00001 2.5 0.00499998 210 4 1 1.4034e-09 
0.02875 -1.14236e-05 -0.00347406 0.0025 1.00001 1.00001 2.50001 0.00499996 211 4 1 2.30329e-09 
0.0312499 -2.00809e-05 -0.00580911 0.0025 1.00002 1.00002 2.50002 0.00499992 212 4 1 3.68206e-09 
0.0337499 -3.4414e-05 -0.00947068 0.0025 1.00003 1.00004 2.50003 0.00499986 213 4 1 5.73693e-09 
0.0362498 -5.75616e-05 -0.0150654 0.0025 1.00005 1.00006 2.50005 0.00499977 214 4 1 8.71605e-09 
0.0387497 -9.40511e-05 -0.0233975 0.0025 1.00007 1.0001 2.50007 0.00499963 215 4 1 1.29168e-08 
