# Time [s]: 0.325807
# Columns: pos [m], vel [m/s], acc [m/s^2], mass [kg], dens [kg/m^3], pres [Pa], ene [J/kg], sml [m], id, neighbor, alpha, gradh, ...additional?
1.28293 -0.673092 0.000337362 0.0025 0.511052 0.432728 2.1525 0.00978375 0 4 1 -0.000134226 
1.28771 -0.673093 0.000350099 0.0025 0.536908 0.42619 1.95004 0.00931258 1 4 1 0.000179252 
1.29225 -0.673094 0.000363414 0.0025 0.548238 0.430859 1.9685 0.00912013 2 3 1 -1.90586e-05 
1.29683 -0.673095 0.000379229 0.0025 0.545972 0.429194 1.96465 0.00915797 3 5 1 3.48577e-06 
1.3014 -0.673097 0.000397563 0.0025 0.54637 0.429349 1.96458 0.00915131 4 4 1 -1.38718e-07 
1.30598 -0.673098 0.000417542 0.0025 0.54638 0.429319 1.96435 0.00915113 5 4 1 1.43686e-07 
1.31055 -0.6731 0.000438308 0.0025 0.546403 0.429317 1.96429 0.00915076 6 4 1 -3.55736e-09 
1.31513 -0.673102 0.000460111 0.0025 0.546415 0.429313 1.96422 0.00915055 7 4 1 8.18518e-09 
1.31971 -0.673104 0.000484362 0.0025 0.546429 0.429312 1.96417 0.00915032 8 4 1 4.70859e-09 
1.32428 -0.673106 0.000512487 0.0025 0.54644 0.42931 1.96412 0.00915013 9 4 1 5.41154e-09 
1.32886 -0.673108 0.000544552 0.0025 0.546451 0.429309 1.96408 0.00914996 10 4 1 -2.31332e-09 
1.33343 -0.673111 0.000578991 0.0025 0.546461 0.429307 1.96403 0.00914979 11 4 1 4.64846e-09 
1.33801 -0.673113 0.000613976 0.0025 0.54647 0.429306 1.96399 0.00914963 12 4 1 2.76774e-09 
1.34258 -0.673116 0.000649435 0.0025 0.546478 0.429304 1.96396 0.0091495 13 4 1 3.48528e-09 
1.34715 -0.673119 0.000687913 0.0025 0.546484 0.429302 1.96393 0.00914939 14 4 1 2.02521e-09 
1.35173 -0.673123 0.000733059 0.0025 0.546491 0.4293 1.9639 0.00914929 15 4 1 -1.69047e-09 
1.3563 -0.673126 0.000786552 0.0025 0.546496 0.429298 1.96387 0.00914919 16 4 1 4.77794e-09 
1.36088 -0.67313 0.000846025 0.0025 0.546501 0.429296 1.96384 0.00914911 17 4 1 1.34763e-09 
1.36545 -0.673134 0.000906451 0.0025 0.546505 0.429294 1.96382 0.00914905 18 4 1 -1.32711e-09 
1.37003 -0.673138 0.000964767 0.0025 0.546509 0.429292 1.96379 0.00914898 19 4 1 2.57205e-09 
1.3746 -0.673143 0.00102414 0.0025 0.546512 0.429289 1.96377 0.00914893 20 4 1 1.03869e-09 
1.37918 -0.673148 0.00109343 0.0025 0.546514 0.429286 1.96375 0.00914889 21 4 1 1.03806e-09 
1.38375 -0.673154 0.00118089 0.0025 0.546516 0.429283 1.96373 0.00914886 22 4 1 8.64604e-10 
1.38833 -0.673159 0.00128673 0.0025 0.546517 0.42928 1.96371 0.00914884 23 4 1 -4.0201e-10 
1.3929 -0.673166 0.00140133 0.0025 0.546518 0.429277 1.96369 0.00914883 24 4 1 1.2322e-09 
1.39747 -0.673172 0.00151204 0.0025 0.546518 0.429273 1.96367 0.00914882 25 3 1 5.01986e-10 
1.40205 -0.673179 0.00161368 0.0025 0.546518 0.429269 1.96365 0.00914883 26 4 1 -5.76621e-10 
1.40662 -0.673187 0.00171425 0.0025 0.546518 0.429264 1.96363 0.00914884 27 4 1 1.00535e-09 
1.4112 -0.673196 0.00183072 0.0025 0.546516 0.42926 1.96362 0.00914886 28 4 1 6.05517e-10 
1.41577 -0.673205 0.00197794 0.0025 0.546515 0.429255 1.9636 0.00914889 29 4 1 -1.10636e-09 
1.42035 -0.673215 0.0021593 0.0025 0.546513 0.429249 1.96358 0.00914892 30 4 1 7.46588e-11 
1.42492 -0.673226 0.00236626 0.0025 0.54651 0.429243 1.96357 0.00914897 31 4 1 1.45821e-09 
1.4295 -0.673237 0.0025861 0.0025 0.546506 0.429237 1.96355 0.00914903 32 4 1 -1.41895e-09 
1.43407 -0.67325 0.00281123 0.0025 0.546502 0.42923 1.96353 0.0091491 33 4 1 -1.42661e-09 
1.43864 -0.673263 0.00304306 0.0025 0.546497 0.429222 1.96351 0.00914918 34 4 1 1.4796e-09 
1.44322 -0.673278 0.00328985 0.0025 0.546492 0.429214 1.9635 0.00914927 35 4 1 -9.02224e-10 
1.44779 -0.673294 0.00356345 0.0025 0.546485 0.429205 1.96348 0.00914938 36 4 1 -1.65459e-09 
1.45237 -0.673312 0.00387777 0.0025 0.546478 0.429195 1.96346 0.00914949 37 4 1 5.35901e-10 
1.45694 -0.673332 0.00424434 0.0025 0.54647 0.429184 1.96344 0.00914963 38 4 1 -9.31428e-10 
1.46152 -0.673353 0.00465926 0.0025 0.546461 0.429173 1.96342 0.00914978 39 4 1 -1.87256e-09 
1.46609 -0.673377 0.005089 0.0025 0.546451 0.42916 1.96339 0.00914995 40 4 1 -4.64021e-10 
1.47067 -0.673403 0.00547881 0.0025 0.54644 0.429146 1.96337 0.00915014 41 4 1 -6.62334e-10 
1.47524 -0.673432 0.00580116 0.0025 0.546427 0.429131 1.96335 0.00915035 42 4 1 -1.63795e-09 
1.47982 -0.673466 0.00611953 0.0025 0.546414 0.429114 1.96332 0.00915057 43 4 1 -1.11775e-09 
1.48439 -0.673505 0.00659741 0.0025 0.5464 0.429097 1.96329 0.00915081 44 4 1 -6.30045e-10 
1.48897 -0.673549 0.00740685 0.0025 0.546383 0.429078 1.96326 0.00915108 45 4 1 -2.82484e-09 
1.49354 -0.673597 0.00860211 0.0025 0.546365 0.429056 1.96323 0.00915139 46 4 1 -4.14978e-09 
1.49812 -0.673649 0.0100964 0.0025 0.546344 0.429032 1.96319 0.00915175 47 4 1 -3.6502e-09 
-0.497303 -0.673705 0.0117735 0.0025 0.546319 0.429003 1.96315 0.00915217 48 4 1 -4.54534e-09 
-0.492727 -0.673766 0.0135918 0.0025 0.546289 0.428969 1.96311 0.00915266 49 4 1 -5.89354e-09 
-0.488151 -0.673833 0.0155637 0.0025 0.546255 0.428931 1.96305 0.00915323 50 4 1 -6.00987e-09 
-0.483574 -0.673907 0.0176839 0.0025 0.546216 0.428887 1.96299 0.00915388 51 4 1 -5.4405e-09 
-0.478997 -0.67399 0.0199177 0.0025 0.546172 0.428837 1.96292 0.00915462 52 4 1 -6.4101e-09 
-0.474419 -0.674082 0.0222367 0.0025 0.546122 0.428782 1.96285 0.00915546 53 4 1 -7.28866e-09 
-0.469841 -0.674185 0.0246636 0.0025 0.546067 0.42872 1.96276 0.00915639 54 4 1 -6.53186e-09 
-0.465263 -0.6743 0.0272643 0.0025 0.546006 0.428652 1.96267 0.00915741 55 4 1 -5.94989e-09 
-0.460684 -0.674426 0.0299845 0.0025 0.545939 0.428577 1.96257 0.00915854 56 4 1 -6.58219e-09 
-0.456104 -0.674562 0.0325202 0.0025 0.545866 0.428497 1.96246 0.00915975 57 4 1 -5.66782e-09 
-0.451524 -0.674707 0.034487 0.0025 0.545789 0.428411 1.96235 0.00916104 58 4 1 -2.04089e-09 
-0.446943 -0.674859 0.0355432 0.0025 0.54571 0.428323 1.96223 0.00916238 59 4 1 1.08821e-09 
-0.442362 -0.675013 0.03546 0.0025 0.545631 0.428236 1.96211 0.00916371 60 4 1 4.40914e-09 
-0.43778 -0.675164 0.0341903 0.0025 0.545555 0.428152 1.962 0.00916497 61 4 1 9.07493e-09 
-0.433197 -0.675302 0.0311391 0.0025 0.545488 0.428077 1.9619 0.00916611 62 4 1 1.52075e-08 
-0.428614 -0.675418 0.0260493 0.0025 0.545432 0.428015 1.96182 0.00916705 63 4 1 2.20068e-08 
-0.42403 -0.675501 0.0180682 0.0025 0.545394 0.427973 1.96176 0.00916769 64 4 1 2.56016e-08 
-0.419446 -0.675533 0.00479907 0.0025 0.545377 0.427955 1.96173 0.00916796 65 5 1 2.62635e-08 
-0.414862 -0.675575 0.0111624 0.0025 0.545385 0.427966 1.96174 0.00916784 66 4 1 1.41901e-07 
-0.410278 -0.675397 -0.0964365 0.0025 0.545509 0.428106 1.96191 0.00916576 67 4 1 2.58192e-07 
-0.405696 -0.674758 -0.184641 0.0025 0.545841 0.428472 1.96239 0.00916017 68 4 1 2.78882e-07 
-0.401118 -0.673761 -0.266333 0.0025 0.546396 0.429088 1.96318 0.00915088 69 4 1 4.99518e-07 
-0.396545 -0.672115 -0.497785 0.0025 0.547328 0.430126 1.96452 0.00913529 70 4 1 9.15934e-07 
-0.391983 -0.669159 -0.866678 0.0025 0.548908 0.431871 1.96678 0.00910899 71 4 1 1.20567e-06 
-0.387436 -0.664613 -1.22415 0.0025 0.551254 0.434451 1.97014 0.00907023 72 4 1 1.18797e-06 
-0.382912 -0.658874 -1.44067 0.0025 0.554231 0.437731 1.97439 0.00902151 73 4 1 1.11267e-06 
-0.378415 -0.652328 -1.62001 0.0025 0.557671 0.441537 1.97928 0.00896586 74 4 1 1.17566e-06 
-0.373946 -0.645085 -1.79391 0.0025 0.561519 0.445809 1.98473 0.00890443 75 4 1 1.34401e-06 
-0.36951 -0.637104 -2.00457 0.0025 0.56579 0.450565 1.99075 0.0088372 76 4 1 1.54432e-06 
-0.365109 -0.628298 -2.22055 0.0025 0.570513 0.455839 1.99738 0.00876405 77 4 1 1.68562e-06 
-0.360746 -0.618749 -2.422 0.0025 0.575666 0.46161 2.00458 0.00868559 78 4 1 1.70455e-06 
-0.356423 -0.608609 -2.55525 0.0025 0.581161 0.467784 2.01221 0.00860347 79 4 1 1.62234e-06 
-0.352142 -0.598157 -2.63339 0.0025 0.586869 0.474223 2.02009 0.00851979 80 4 1 1.48824e-06 
-0.347903 -0.58764 -2.64851 0.0025 0.592666 0.480789 2.02805 0.00843645 81 4 1 1.35003e-06 
-0.343705 -0.577248 -2.63715 0.0025 0.598459 0.487378 2.03595 0.00835479 82 4 1 1.26206e-06 
-0.339548 -0.567004 -2.62182 0.0025 0.604205 0.49394 2.04375 0.00827533 83 4 1 1.17448e-06 
-0.33543 -0.556999 -2.58565 0.0025 0.609877 0.500442 2.0514 0.00819837 84 4 1 1.08916e-06 
-0.33135 -0.547229 -2.54658 0.0025 0.615452 0.506857 2.05888 0.00812411 85 4 1 1.03554e-06 
-0.327306 -0.537728 -2.51337 0.0025 0.620931 0.513185 2.06619 0.00805242 86 4 1 9.99987e-07 
-0.323297 -0.528421 -2.48714 0.0025 0.626325 0.519437 2.07335 0.00798307 87 4 1 9.4642e-07 
-0.319322 -0.519312 -2.44646 0.0025 0.631632 0.525609 2.08035 0.007916 88 4 1 9.19149e-07 
-0.315381 -0.510428 -2.42882 0.0025 0.636863 0.531713 2.08722 0.00785099 89 4 1 9.23479e-07 
-0.311471 -0.501656 -2.41941 0.0025 0.642046 0.537781 2.094 0.00778761 90 4 1 9.19241e-07 
-0.307593 -0.493016 -2.41444 0.0025 0.647199 0.543835 2.10071 0.0077256 91 4 1 9.4002e-07 
-0.303746 -0.484415 -2.43132 0.0025 0.65235 0.549906 2.10738 0.0076646 92 4 1 9.80812e-07 
-0.299928 -0.475822 -2.46181 0.0025 0.657534 0.556035 2.11406 0.00760417 93 4 1 1.02716e-06 
-0.296141 -0.467186 -2.50887 0.0025 0.662783 0.562261 2.12079 0.00754395 94 4 1 1.09521e-06 
-0.292384 -0.45841 -2.58298 0.0025 0.668133 0.568625 2.12762 0.00748353 95 4 1 1.10791e-06 
-0.288658 -0.44953 -2.62131 0.0025 0.673581 0.575125 2.13454 0.00742301 96 4 1 1.10068e-06 
-0.284961 -0.44061 -2.66883 0.0025 0.679106 0.581741 2.14153 0.00736262 97 4 1 1.14939e-06 
-0.281295 -0.431565 -2.74036 0.0025 0.684729 0.588494 2.14861 0.00730216 98 4 1 1.12722e-06 
-0.277659 -0.422438 -2.75943 0.0025 0.690423 0.595355 2.15573 0.00724193 99 4 1 1.08081e-06 
-0.274053 -0.413365 -2.78268 0.0025 0.696149 0.602279 2.16287 0.00718237 100 4 1 1.0826e-06 
-0.270476 -0.404271 -2.81105 0.0025 0.701908 0.609264 2.17001 0.00712344 101 4 1 1.04191e-06 
-0.266929 -0.39523 -2.80653 0.0025 0.707675 0.616283 2.17712 0.00706539 102 4 1 1.02606e-06 
-0.263411 -0.386281 -2.82946 0.0025 0.713444 0.623329 2.1842 0.00700826 103 4 1 1.02277e-06 
-0.259921 -0.377341 -2.83735 0.0025 0.719223 0.630407 2.19126 0.00695195 104 4 1 9.87509e-07 
-0.256459 -0.368484 -2.83784 0.0025 0.724993 0.637499 2.19828 0.00689662 105 4 1 9.60284e-07 
-0.253024 -0.359716 -2.83496 0.0025 0.730746 0.644593 2.20524 0.00684232 106 4 1 9.63546e-07 
-0.249616 -0.350996 -2.8558 0.0025 0.736495 0.651703 2.21216 0.00678891 107 4 1 9.37276e-07 
-0.246235 -0.342328 -2.84269 0.0025 0.742233 0.658821 2.21904 0.00673643 108 4 1 8.88301e-07 
-0.24288 -0.333809 -2.82805 0.0025 0.747937 0.665922 2.22584 0.00668506 109 4 1 9.31985e-07 
-0.23955 -0.325305 -2.87492 0.0025 0.753647 0.673051 2.23262 0.0066344 110 4 1 9.18504e-07 
-0.236245 -0.316833 -2.86173 0.0025 0.759367 0.680211 2.23939 0.00658443 111 4 1 8.56654e-07 
-0.232965 -0.308479 -2.85207 0.0025 0.765056 0.687356 2.24608 0.00653547 112 4 1 8.58187e-07 
-0.22971 -0.300209 -2.85853 0.0025 0.770729 0.694503 2.25273 0.00648737 113 4 1 8.84115e-07 
-0.226478 -0.291938 -2.8917 0.0025 0.776412 0.701683 2.25936 0.00643988 114 4 1 8.41186e-07 
-0.22327 -0.283719 -2.8651 0.0025 0.782085 0.708867 2.26595 0.00639317 115 4 1 7.64782e-07 
-0.220085 -0.275685 -2.82957 0.0025 0.7877 0.716006 2.27244 0.00634759 116 4 1 8.43516e-07 
-0.216922 -0.267656 -2.90369 0.0025 0.793328 0.72318 2.27892 0.00630256 117 4 1 8.65864e-07 
-0.213782 -0.259572 -2.90601 0.0025 0.798994 0.730417 2.28542 0.00625787 118 4 1 7.44401e-07 
-0.210664 -0.251648 -2.85104 0.0025 0.804612 0.737617 2.29183 0.00621418 119 4 1 7.50939e-07 
-0.207568 -0.24383 -2.8761 0.0025 0.810195 0.744795 2.29818 0.00617135 120 4 1 8.16136e-07 
-0.204493 -0.235996 -2.91348 0.0025 0.815806 0.752026 2.30453 0.00612891 121 4 1 7.84185e-07 
-0.201439 -0.228166 -2.90914 0.0025 0.821426 0.759284 2.31087 0.00608698 122 4 1 6.98004e-07 
-0.198406 -0.220487 -2.85938 0.0025 0.826993 0.766499 2.31712 0.006046 123 4 1 6.93284e-07 
-0.195393 -0.212918 -2.86704 0.0025 0.832519 0.773682 2.3233 0.00600587 124 4 1 7.76133e-07 
-0.1924 -0.205331 -2.92781 0.0025 0.838079 0.780926 2.32949 0.00596603 125 4 1 7.79193e-07 
-0.189427 -0.197684 -2.94301 0.0025 0.843676 0.788233 2.3357 0.00592644 126 4 1 6.47905e-07 
-0.186473 -0.190186 -2.85881 0.0025 0.849214 0.795485 2.34182 0.00588779 127 4 1 6.30021e-07 
-0.183539 -0.182864 -2.86813 0.0025 0.85469 0.80268 2.34785 0.00585008 128 4 1 7.50489e-07 
-0.180623 -0.175485 -2.94574 0.0025 0.860211 0.80995 2.3539 0.00581253 129 4 1 7.69378e-07 
-0.177726 -0.16799 -2.98076 0.0025 0.865792 0.81731 2.36 0.00577506 130 4 1 5.84523e-07 
-0.174848 -0.160701 -2.84476 0.0025 0.871291 0.824584 2.36599 0.00573861 131 4 1 5.23441e-07 
-0.171988 -0.153691 -2.82303 0.0025 0.876673 0.831731 2.37182 0.00570338 132 4 1 7.36068e-07 
-0.169145 -0.146569 -2.967 0.0025 0.882124 0.838984 2.37771 0.00566813 133 4 1 8.01149e-07 
-0.166319 -0.139207 -3.02486 0.0025 0.887697 0.846405 2.38371 0.00563255 134 4 1 5.57441e-07 
-0.163512 -0.132036 -2.8663 0.0025 0.893191 0.853741 2.3896 0.00559791 135 4 1 4.30996e-07 
-0.160721 -0.125252 -2.78558 0.0025 0.898514 0.860882 2.39528 0.00556474 136 4 1 6.80362e-07 
-0.157947 -0.118379 -2.96506 0.0025 0.903891 0.868111 2.401 0.00553164 137 4 1 8.29585e-07 
-0.15519 -0.111184 -3.07471 0.0025 0.909445 0.875578 2.4069 0.00549786 138 4 1 5.56219e-07 
-0.152449 -0.104112 -2.90203 0.0025 0.914942 0.882985 2.41271 0.00546483 139 4 1 3.15155e-07 
-0.149725 -0.0975448 -2.72558 0.0025 0.920193 0.890096 2.41823 0.00543364 140 4 1 5.39646e-07 
-0.147016 -0.0910473 -2.8752 0.0025 0.925412 0.897183 2.4237 0.005403 141 4 1 8.20926e-07 
-0.144322 -0.0841657 -3.06981 0.0025 0.930846 0.904564 2.42939 0.00537146 142 4 1 6.67761e-07 
-0.141644 -0.077176 -3.00069 0.0025 0.936353 0.912051 2.43513 0.00533986 143 4 1 3.35302e-07 
-0.138982 -0.0706117 -2.7685 0.0025 0.94165 0.919282 2.44063 0.00530983 144 4 1 3.73694e-07 
-0.136334 -0.0643554 -2.78401 0.0025 0.94679 0.926327 2.44594 0.005281 145 4 1 6.84581e-07 
-0.133701 -0.05787 -2.99087 0.0025 0.952059 0.933557 2.45138 0.00525177 146 4 1 7.53463e-07 
-0.131082 -0.0510574 -3.08792 0.0025 0.957507 0.941031 2.45699 0.00522189 147 4 1 3.61791e-07 
-0.128479 -0.0445273 -2.7738 0.0025 0.962794 0.9483 2.46241 0.00519322 148 4 1 9.88776e-08 
-0.125889 -0.0386681 -2.54966 0.0025 0.967725 0.955123 2.46743 0.00516676 149 4 1 6.10002e-07 
-0.123312 -0.0327389 -2.96621 0.0025 0.972757 0.962105 2.47255 0.00514003 150 4 1 1.04281e-06 
-0.120749 -0.0258203 -3.33007 0.0025 0.97823 0.969661 2.47814 0.00511127 151 4 1 -7.02392e-09 
-0.118201 -0.0194967 -2.34119 0.0025 0.983275 0.976629 2.48324 0.00508505 152 4 1 -7.06623e-07 
-0.115664 -0.0152655 -1.74224 0.0025 0.987353 0.982371 2.48729 0.00506405 153 4 1 1.38146e-06 
-0.113137 -0.00980146 -3.67159 0.0025 0.992263 0.989282 2.49225 0.00503898 154 4 1 2.37761e-06 
-0.110625 -0.000854713 -4.39405 0.0025 0.998735 0.998194 2.49885 0.00500634 155 4 1 -1.581e-06 
-0.10813 0.00514958 -1.02112 0.0025 1.00342 1.00467 2.50349 0.00498295 156 4 1 -2.62217e-06 
-0.105642 0.00563512 -0.0225704 0.0025 1.00531 1.0075 2.50524 0.00497357 157 4 1 2.19417e-06 
-0.103157 0.00959533 -3.87381 0.0025 1.00893 1.01266 2.50889 0.00495576 158 4 1 2.97676e-06 
-0.100686 0.0185476 -4.06242 0.0025 1.01501 1.02103 2.51506 0.00492605 159 4 1 -1.9456e-06 
-0.0982307 0.0232738 -0.768573 0.0025 1.01905 1.02666 2.51902 0.00490653 160 4 1 -2.44746e-06 
-0.0957797 0.0239286 -0.0821591 0.0025 1.02022 1.02839 2.52013 0.00490089 161 4 1 -5.94424e-07 
-0.0933298 0.0242298 -0.0589288 0.0025 1.02049 1.02878 2.52039 0.00489962 162 3 1 -3.73079e-07 
-0.0908801 0.0240806 0.122684 0.0025 1.02029 1.02851 2.5202 0.00490055 163 4 1 -4.04521e-07 
-0.0884293 0.0234205 0.389545 0.0025 1.01962 1.02756 2.51953 0.00490381 164 4 1 -3.66754e-07 
-0.0859763 0.0222138 0.652804 0.0025 1.01849 1.02598 2.51842 0.00490921 165 4 1 -2.83345e-07 
-0.08352 0.0205432 0.863875 0.0025 1.01701 1.02389 2.51695 0.00491637 166 4 1 -1.68569e-07 
-0.0810599 0.018545 1.00251 0.0025 1.01528 1.02146 2.51523 0.00492475 167 4 1 -5.36592e-08 
-0.0785953 0.0163645 1.07011 0.0025 1.01342 1.01885 2.51338 0.00493377 168 4 1 4.41522e-08 
-0.0761261 0.0141331 1.0763 0.0025 1.01154 1.01621 2.51151 0.00494294 169 4 1 1.17566e-07 
-0.0736524 0.0119578 1.03432 0.0025 1.00973 1.01366 2.50971 0.00495182 170 4 1 1.6597e-07 
-0.0711743 0.00991833 0.95786 0.0025 1.00804 1.01129 2.50802 0.00496012 171 4 1 1.92361e-07 
-0.0686922 0.00806833 0.859424 0.0025 1.00652 1.00915 2.50651 0.00496762 172 4 1 2.01152e-07 
-0.0662067 0.00643848 0.749662 0.0025 1.00519 1.00728 2.50518 0.0049742 173 4 1 1.96916e-07 
-0.063718 0.00504042 0.637123 0.0025 1.00405 1.00568 2.50404 0.00497984 174 4 1 1.83753e-07 
-0.0612268 0.00387097 0.528297 0.0025 1.0031 1.00435 2.50309 0.00498455 175 4 1 1.6507e-07 
-0.0587335 0.00291606 0.427763 0.0025 1.00233 1.00327 2.50233 0.00498838 176 4 1 1.43566e-07 
-0.0562384 0.00215444 0.338402 0.0025 1.00172 1.00241 2.50171 0.00499143 177 4 1 1.21297e-07 
-0.0537421 0.00156083 0.261645 0.0025 1.00124 1.00174 2.50124 0.0049938 178 4 1 9.97539e-08 
-0.0512446 0.0011086 0.197758 0.0025 1.00088 1.00124 2.50088 0.0049956 179 4 1 7.99503e-08 
-0.0487464 0.000771769 0.146135 0.0025 1.00061 1.00086 2.50061 0.00499694 180 4 1 6.24932e-08 
-0.0462477 0.000526482 0.105582 0.0025 1.00042 1.00059 2.50042 0.00499792 181 4 1 4.76596e-08 
-0.0437485 0.000351827 0.0745831 0.0025 1.00028 1.00039 2.50028 0.00499861 182 4 1 3.54712e-08 
-0.0412491 0.000230233 0.0515071 0.0025 1.00018 1.00026 2.50018 0.00499909 183 4 1 2.57666e-08 
-0.0387494 0.000147473 0.0347698 0.0025 1.00012 1.00016 2.50012 0.00499942 184 4 1 1.82683e-08 
-0.0362497 9.2416e-05 0.0229372 0.0025 1.00007 1.0001 2.50007 0.00499964 185 4 1 1.26409e-08 
-0.0337498 5.66245e-05 0.0147821 0.0025 1.00004 1.00006 2.50004 0.00499978 186 4 1 8.53548e-09 
-0.0312499 3.38974e-05 0.00930229 0.0025 1.00003 1.00004 2.50003 0.00499987 187 4 1 5.62279e-09 
-0.0287499 1.98085e-05 0.0057128 0.0025 1.00002 1.00002 2.50002 0.00499992 188 4 1 3.61245e-09 
-0.02625 1.12874e-05 0.00342128 0.0025 1.00001 1.00001 2.50001 0.00499996 189 4 1 2.26244e-09 
-0.02375 6.26359e-06 0.00199617 0.0025 1 1.00001 2.5 0.00499998 190 4 1 1.38041e-09 
-0.02125 3.37943e-06 0.00113334 0.0025 1 1 2.5 0.00499999 191 4 1 8.19866e-10 
-0.01875 1.76922e-06 0.000625207 0.0025 1 1 2.5 0.00499999 192 4 1 4.73502e-10 
-0.01625 8.96463e-07 0.000334477 0.0025 1 1 2.5 0.005 193 4 1 2.65556e-10 
-0.01375 4.38203e-07 0.000173114 0.0025 1 1 2.5 0.005 194 4 1 1.44372e-10 
-0.01125 2.05752e-07 8.64062e-05 0.0025 1 1 2.5 0.005 195 4 1 7.59234e-11 
-0.00875 9.22478e-08 4.13972e-05 0.0025 1 1 2.5 0.005 196 4 1 3.8548e-11 
-0.00625 3.90828e-08 1.8844e-05 0.0025 1 1 2.5 0.005 197 4 1 1.89492e-11 
-0.00375 1.5071e-08 7.80632e-06 0.0025 1 1 2.5 0.005 198 4 1 9.32275e-12 
-0.00125 3.83815e-09 2.09195e-06 0.0025 1 1 2.5 0.005 199 5 1 5.43115e-12 
0.00125 -3.83814e-09 -2.09195e-06 0.0025 1 1 2.5 0.005 200 4 1 5.43115e-12 
0.00375 -1.5071e-08 -7.80632e-06 0.0025 1 1 2.5 0.005 201 4 1 9.32275e-12 
0.00625 -3.90828e-08 -1.8844e-05 0.0025 1 1 2.5 0.005 202 4 1 1.89492e-11 
0.00875 -9.22478e-08 -4.13972e-05 0.0025 1 1 2.5 0.005 203 4 1 3.8548e-11 
0.01125 -2.05752e-07 -8.64062e-05 0.0025 1 1 2.5 0.005 204 4 1 7.59234e-11 
0.01375 -4.38203e-07 -0.000173114 0.0025 1 1 2.5 0.005 205 4 1 1.44372e-10 
0.01625 -8.96463e-07 -0.000334477 0.0025 1 1 2.5 0.005 206 4 1 2.65556e-10 
0.01875 -1.76922e-06 -0.000625207 0.0025 1 1 2.5 0.00499999 207 4 1 4.73502e-10 
0.02125 -3.37943e-06 -0.00113334 0.0025 1 1 2.5 0.00499999 208 4 1 8.19866e-10 
0.02375 -6.26359e-06 -0.00199617 0.0025 1 1.00001 2.5 0.00499998 209 4 1 1.38041e-09 
0.02625 -1.12874e-05 -0.00342128 0.0025 1.00001 1.00001 2.50001 0.00499996 210 4 1 2.26244e-09 
0.0287499 -1.98085e-05 -0.0057128 0.0025 1.00002 1.00002 2.50002 0.00499992 211 4 1 3.61245e-09 
0.0312499 -3.38974e-05 -0.00930229 0.0025 1.00003 1.00004 2.50003 0.00499987 212 4 1 5.62279e-09 
0.0337498 -5.66245e-05 -0.0147821 0.0025 1.00004 1.00006 2.50004 0.00499978 213 4 1 8.53548e-09 
0.0362497 -9.2416e-05 -0.0229372 0.0025 1.00007 1.0001 2.50007 0.00499964 214 4 1 1.26409e-08 
0.0387494 -0.000147473 -0.0347698 0.0025 1.00012 1.00016 2.50012 0.00499942 215 4 1 1.82683e-08 
