# Time [s]: 0.33199
# Columns: pos [m], vel [m/s], acc [m/s^2], mass [kg], dens [kg/m^3], pres [Pa], ene [J/kg], sml [m], id, neighbor, alpha, gradh, ...additional?
1.27876 -0.67309 0.000303422 0.0025 0.511052 0.432729 2.1525 0.00978374 0 4 1 -0.000134225 
1.28355 -0.673091 0.000314604 0.0025 0.536909 0.426191 1.95004 0.00931256 1 4 1 0.000179252 
1.28808 -0.673092 0.000327083 0.0025 0.548239 0.43086 1.9685 0.00912011 2 3 1 -1.90586e-05 
1.29267 -0.673093 0.000341582 0.0025 0.545973 0.429196 1.96465 0.00915796 3 5 1 3.48576e-06 
1.29724 -0.673094 0.000357466 0.0025 0.546371 0.42935 1.96458 0.00915129 4 4 1 -1.38713e-07 
1.30182 -0.673096 0.000374538 0.0025 0.546381 0.42932 1.96435 0.00915112 5 4 1 1.43692e-07 
1.30639 -0.673097 0.000393424 0.0025 0.546404 0.429318 1.96429 0.00915074 6 4 1 -3.55303e-09 
1.31097 -0.673099 0.000415162 0.0025 0.546417 0.429315 1.96423 0.00915053 7 4 1 8.18625e-09 
1.31554 -0.673101 0.000440186 0.0025 0.54643 0.429313 1.96417 0.0091503 8 4 1 4.70878e-09 
1.32012 -0.673103 0.000467676 0.0025 0.546442 0.429312 1.96412 0.0091501 9 4 1 5.41565e-09 
1.32469 -0.673105 0.000496042 0.0025 0.546452 0.429311 1.96408 0.00914993 10 4 1 -2.30226e-09 
1.32927 -0.673107 0.000524355 0.0025 0.546463 0.429309 1.96404 0.00914976 11 4 1 4.66457e-09 
1.33384 -0.67311 0.000553564 0.0025 0.546472 0.429308 1.964 0.0091496 12 4 1 2.78287e-09 
1.33842 -0.673112 0.000586219 0.0025 0.54648 0.429306 1.96396 0.00914947 13 4 1 3.49448e-09 
1.34299 -0.673115 0.000624563 0.0025 0.546487 0.429305 1.96393 0.00914935 14 4 1 2.03002e-09 
1.34757 -0.673118 0.000668383 0.0025 0.546493 0.429303 1.9639 0.00914925 15 4 1 -1.68148e-09 
1.35214 -0.673122 0.000714729 0.0025 0.546499 0.429301 1.96387 0.00914915 16 4 1 4.80009e-09 
1.35672 -0.673125 0.000760395 0.0025 0.546504 0.429299 1.96384 0.00914907 17 4 1 1.38303e-09 
1.36129 -0.673129 0.000805577 0.0025 0.546508 0.429297 1.96382 0.009149 18 4 1 -1.29071e-09 
1.36587 -0.673133 0.000855372 0.0025 0.546512 0.429295 1.9638 0.00914893 19 4 1 2.59278e-09 
1.37044 -0.673137 0.000916938 0.0025 0.546515 0.429293 1.96377 0.00914887 20 4 1 1.03759e-09 
1.37501 -0.673142 0.000993769 0.0025 0.546518 0.42929 1.96375 0.00914883 21 4 1 1.02882e-09 
1.37959 -0.673147 0.00108182 0.0025 0.54652 0.429288 1.96373 0.0091488 22 4 1 8.738e-10 
1.38416 -0.673152 0.00117148 0.0025 0.546522 0.429285 1.96371 0.00914877 23 4 1 -3.55278e-10 
1.38874 -0.673157 0.0012548 0.0025 0.546523 0.429282 1.96369 0.00914875 24 4 1 1.31057e-09 
1.39331 -0.673164 0.00133243 0.0025 0.546523 0.429278 1.96368 0.00914874 25 4 1 5.82509e-10 
1.39789 -0.67317 0.00141456 0.0025 0.546523 0.429275 1.96366 0.00914874 26 3 1 -5.25853e-10 
1.40246 -0.673177 0.00151466 0.0025 0.546523 0.429271 1.96364 0.00914874 27 4 1 1.01655e-09 
1.40703 -0.673185 0.00164081 0.0025 0.546523 0.429267 1.96363 0.00914875 28 4 1 5.97596e-10 
1.41161 -0.673193 0.00179113 0.0025 0.546521 0.429262 1.96361 0.00914877 29 4 1 -1.09711e-09 
1.41618 -0.673202 0.00195632 0.0025 0.54652 0.429257 1.96359 0.0091488 30 4 1 1.28492e-10 
1.42076 -0.673212 0.00212674 0.0025 0.546518 0.429252 1.96358 0.00914884 31 4 1 1.5595e-09 
1.42533 -0.673222 0.00229839 0.0025 0.546514 0.429246 1.96356 0.00914889 32 4 1 -1.2882e-09 
1.42991 -0.673233 0.0024743 0.0025 0.546511 0.42924 1.96355 0.00914895 33 4 1 -1.28968e-09 
1.43448 -0.673246 0.00266264 0.0025 0.546507 0.429233 1.96353 0.00914901 34 4 1 1.60638e-09 
1.43906 -0.673259 0.00287415 0.0025 0.546503 0.429226 1.96351 0.00914909 35 4 1 -7.90951e-10 
1.44363 -0.673274 0.00311829 0.0025 0.546497 0.429218 1.9635 0.00914918 36 4 1 -1.54718e-09 
1.44821 -0.67329 0.00339501 0.0025 0.546491 0.429209 1.96348 0.00914927 37 4 1 6.82093e-10 
1.45278 -0.673307 0.00368404 0.0025 0.546485 0.4292 1.96346 0.00914939 38 4 1 -6.6951e-10 
1.45735 -0.673326 0.00394489 0.0025 0.546477 0.42919 1.96344 0.00914952 39 4 1 -1.4255e-09 
1.46193 -0.673348 0.00414272 0.0025 0.546469 0.429179 1.96342 0.00914965 40 4 1 1.41486e-10 
1.4665 -0.673372 0.00429461 0.0025 0.54646 0.429168 1.9634 0.0091498 41 4 1 -8.18114e-11 
1.47108 -0.673401 0.0044973 0.0025 0.54645 0.429156 1.96338 0.00914996 42 4 1 -1.34724e-09 
1.47565 -0.673432 0.00489239 0.0025 0.54644 0.429143 1.96336 0.00915014 43 4 1 -1.24853e-09 
1.48023 -0.673468 0.00557867 0.0025 0.546428 0.429129 1.96333 0.00915033 44 4 1 -1.01229e-09 
1.4848 -0.673506 0.00654921 0.0025 0.546415 0.429112 1.96331 0.00915056 45 4 1 -3.08146e-09 
1.48938 -0.673546 0.00772034 0.0025 0.546399 0.429094 1.96328 0.00915082 46 4 1 -4.00266e-09 
1.49396 -0.67359 0.00901647 0.0025 0.54638 0.429072 1.96325 0.00915114 47 4 1 -3.10413e-09 
1.49853 -0.673636 0.0104128 0.0025 0.546358 0.429046 1.96321 0.00915151 48 4 1 -3.75778e-09 
-0.496893 -0.673687 0.0119085 0.0025 0.546332 0.429017 1.96317 0.00915194 49 4 1 -4.9549e-09 
-0.492317 -0.673743 0.0134954 0.0025 0.546303 0.428983 1.96312 0.00915243 50 4 1 -4.92646e-09 
-0.487741 -0.673806 0.0151699 0.0025 0.54627 0.428946 1.96307 0.00915299 51 4 1 -4.27444e-09 
-0.483164 -0.673876 0.0169676 0.0025 0.546232 0.428903 1.96301 0.00915362 52 4 1 -5.36272e-09 
-0.478587 -0.673955 0.0189726 0.0025 0.546189 0.428855 1.96294 0.00915434 53 4 1 -6.62116e-09 
-0.47401 -0.674043 0.0212555 0.0025 0.546142 0.428802 1.96287 0.00915513 54 4 1 -6.33714e-09 
-0.469432 -0.674142 0.02377 0.0025 0.546089 0.428743 1.96279 0.00915602 55 4 1 -6.06029e-09 
-0.464854 -0.674251 0.0263499 0.0025 0.546029 0.428677 1.9627 0.00915701 56 4 1 -6.92509e-09 
-0.460275 -0.674372 0.0288282 0.0025 0.545965 0.428605 1.9626 0.0091581 57 4 1 -6.61779e-09 
-0.455696 -0.674504 0.0311093 0.0025 0.545895 0.428527 1.9625 0.00915927 58 4 1 -4.26616e-09 
-0.451116 -0.674646 0.0331462 0.0025 0.545821 0.428445 1.96239 0.00916052 59 4 1 -3.00243e-09 
-0.446535 -0.674795 0.0347668 0.0025 0.545743 0.428359 1.96227 0.00916182 60 4 1 -1.41146e-09 
-0.441954 -0.674947 0.0354928 0.0025 0.545665 0.428272 1.96216 0.00916313 61 4 1 2.32149e-09 
-0.437372 -0.675096 0.0347691 0.0025 0.545588 0.428188 1.96204 0.00916442 62 4 1 7.93665e-09 
-0.432789 -0.675236 0.0319631 0.0025 0.545518 0.428109 1.96194 0.00916561 63 4 1 1.36468e-08 
-0.428206 -0.675359 0.0270172 0.0025 0.545458 0.428044 1.96185 0.00916661 64 4 1 1.95043e-08 
-0.423623 -0.675457 0.0200407 0.0025 0.545415 0.427996 1.96178 0.00916734 65 4 1 2.81703e-08 
-0.419039 -0.675513 0.0073084 0.0025 0.545394 0.427972 1.96175 0.00916768 66 4 1 1.53135e-08 
-0.414455 -0.675536 0.0170934 0.0025 0.545388 0.427967 1.96174 0.00916779 67 5 1 7.54302e-08 
-0.409871 -0.675504 -0.0420498 0.0025 0.545445 0.428035 1.96182 0.00916682 68 4 1 2.27342e-07 
-0.405288 -0.675047 -0.157836 0.0025 0.545687 0.428302 1.96216 0.00916276 69 4 1 2.78546e-07 
-0.400709 -0.674182 -0.231133 0.0025 0.546152 0.428815 1.96283 0.00915496 70 4 1 3.69001e-07 
-0.396133 -0.672875 -0.380482 0.0025 0.546902 0.429651 1.9639 0.0091424 71 4 1 6.97788e-07 
-0.391566 -0.670582 -0.682134 0.0025 0.548162 0.431047 1.96571 0.00912139 72 4 1 1.08669e-06 
-0.387012 -0.666757 -1.06877 0.0025 0.550149 0.433235 1.96855 0.00908844 73 4 1 1.21169e-06 
-0.382478 -0.661522 -1.34358 0.0025 0.552844 0.4362 1.9724 0.00904415 74 4 1 1.12889e-06 
-0.377968 -0.655352 -1.53445 0.0025 0.556067 0.439759 1.977 0.00899173 75 4 1 1.1083e-06 
-0.373486 -0.648481 -1.69488 0.0025 0.559701 0.443787 1.98215 0.00893335 76 4 1 1.2123e-06 
-0.369034 -0.640963 -1.87842 0.0025 0.563724 0.448261 1.98784 0.00886959 77 4 1 1.38991e-06 
-0.364616 -0.632675 -2.07865 0.0025 0.568162 0.45321 1.99408 0.00880031 78 4 1 1.5615e-06 
-0.360234 -0.623639 -2.28514 0.0025 0.573024 0.458648 2.00089 0.00872563 79 4 1 1.64619e-06 
-0.35589 -0.613934 -2.44714 0.0025 0.578264 0.464525 2.00819 0.00864657 80 4 1 1.61713e-06 
-0.351587 -0.603794 -2.5536 0.0025 0.583777 0.470731 2.01582 0.00856492 81 4 1 1.51892e-06 
-0.347325 -0.593456 -2.60273 0.0025 0.589443 0.477134 2.02363 0.00848258 82 4 1 1.37423e-06 
-0.343104 -0.583167 -2.59783 0.0025 0.595148 0.483608 2.03144 0.00840127 83 4 1 1.26882e-06 
-0.338924 -0.573011 -2.59133 0.0025 0.600829 0.49008 2.03917 0.00832184 84 4 1 1.18569e-06 
-0.334782 -0.56305 -2.5623 0.0025 0.606453 0.496512 2.04678 0.00824467 85 4 1 1.09765e-06 
-0.330679 -0.553293 -2.52747 0.0025 0.611991 0.50287 2.05423 0.00817006 86 4 1 1.02856e-06 
-0.326612 -0.543788 -2.48755 0.0025 0.617433 0.509142 2.06152 0.00809804 87 4 1 9.87828e-07 
-0.322581 -0.534523 -2.46179 0.0025 0.622786 0.515332 2.06865 0.00802844 88 4 1 9.57943e-07 
-0.318583 -0.525423 -2.43548 0.0025 0.628062 0.521454 2.07564 0.00796099 89 4 1 9.03613e-07 
-0.31462 -0.516551 -2.39665 0.0025 0.633256 0.527501 2.08249 0.00789571 90 4 1 8.9144e-07 
-0.310688 -0.507837 -2.38861 0.0025 0.638384 0.533492 2.08921 0.00783228 91 4 1 8.93737e-07 
-0.306787 -0.499257 -2.37614 0.0025 0.643473 0.539455 2.09586 0.00777034 92 4 1 8.91195e-07 
-0.302917 -0.490767 -2.37829 0.0025 0.648538 0.54541 2.10244 0.00770965 93 4 1 9.2554e-07 
-0.299077 -0.482318 -2.40205 0.0025 0.653613 0.551397 2.10901 0.00764978 94 4 1 9.51807e-07 
-0.295267 -0.473864 -2.42495 0.0025 0.658723 0.557443 2.11559 0.00759044 95 4 1 1.00101e-06 
-0.291487 -0.46536 -2.48119 0.0025 0.6639 0.563587 2.12222 0.00753126 96 4 1 1.06597e-06 
-0.287736 -0.456707 -2.54656 0.0025 0.669177 0.569868 2.12895 0.00747186 97 4 1 1.06306e-06 
-0.284015 -0.447965 -2.58013 0.0025 0.674541 0.576273 2.13576 0.00741244 98 4 1 1.06322e-06 
-0.280323 -0.439195 -2.62894 0.0025 0.679979 0.582788 2.14263 0.00735317 99 4 1 1.11063e-06 
-0.276661 -0.430283 -2.69625 0.0025 0.685511 0.589436 2.14959 0.00729382 100 4 1 1.08614e-06 
-0.273029 -0.421342 -2.7138 0.0025 0.691111 0.596185 2.15659 0.00723473 101 4 1 1.04217e-06 
-0.269427 -0.412437 -2.73599 0.0025 0.69674 0.602994 2.1636 0.00717628 102 4 1 1.04089e-06 
-0.265853 -0.403505 -2.76165 0.0025 0.702397 0.609858 2.17061 0.00711848 103 4 1 1.00089e-06 
-0.262308 -0.394656 -2.75602 0.0025 0.70806 0.616752 2.17759 0.00706155 104 4 1 9.80347e-07 
-0.258791 -0.385852 -2.77215 0.0025 0.713719 0.623665 2.18454 0.00700556 105 4 1 9.84148e-07 
-0.255302 -0.37709 -2.78571 0.0025 0.719386 0.630608 2.19146 0.00695037 106 4 1 9.53443e-07 
-0.251841 -0.368383 -2.78371 0.0025 0.725048 0.637566 2.19834 0.0068961 107 4 1 9.2162e-07 
-0.248406 -0.359781 -2.78 0.0025 0.730692 0.644526 2.20517 0.00684283 108 4 1 9.37018e-07 
-0.244998 -0.351234 -2.80805 0.0025 0.736337 0.651507 2.21197 0.00679037 109 4 1 9.07969e-07 
-0.241616 -0.342716 -2.79107 0.0025 0.741974 0.658499 2.21873 0.00673878 110 4 1 8.56351e-07 
-0.238259 -0.33436 -2.77943 0.0025 0.747577 0.665472 2.22541 0.00668828 111 4 1 8.86222e-07 
-0.234927 -0.326014 -2.80972 0.0025 0.753177 0.672462 2.23207 0.00663854 112 4 1 8.9032e-07 
-0.23162 -0.317701 -2.81611 0.0025 0.758788 0.679485 2.2387 0.00658945 113 4 1 8.35944e-07 
-0.228338 -0.309467 -2.79838 0.0025 0.764378 0.686502 2.24528 0.00654127 114 4 1 8.13685e-07 
-0.225079 -0.301343 -2.79716 0.0025 0.76994 0.693508 2.2518 0.00649401 115 4 1 8.52629e-07 
-0.221844 -0.293251 -2.83579 0.0025 0.775513 0.700546 2.25831 0.00644734 116 4 1 8.32894e-07 
-0.218632 -0.285141 -2.8253 0.0025 0.781091 0.707606 2.26479 0.0064013 117 4 1 7.43243e-07 
-0.215442 -0.27722 -2.77894 0.0025 0.786615 0.714624 2.27119 0.00635635 118 4 1 7.83286e-07 
-0.212275 -0.26938 -2.82649 0.0025 0.792127 0.721647 2.27754 0.00631212 119 4 1 8.42763e-07 
-0.20913 -0.261447 -2.86047 0.0025 0.797681 0.728738 2.28391 0.00626817 120 4 1 7.58228e-07 
-0.206007 -0.253613 -2.81939 0.0025 0.803218 0.735827 2.29024 0.00622496 121 4 1 7.04685e-07 
-0.202905 -0.245915 -2.80498 0.0025 0.808703 0.742874 2.29648 0.00618274 122 4 1 7.59921e-07 
-0.199824 -0.238259 -2.84496 0.0025 0.814192 0.749944 2.3027 0.00614105 123 4 1 7.7926e-07 
-0.196764 -0.230562 -2.86333 0.0025 0.819707 0.757063 2.30893 0.00609974 124 4 1 7.08307e-07 
-0.193724 -0.222948 -2.83004 0.0025 0.825198 0.76417 2.3151 0.00605915 125 4 1 6.574e-07 
-0.190705 -0.21548 -2.80377 0.0025 0.830634 0.771229 2.32119 0.0060195 126 4 1 6.97398e-07 
-0.187705 -0.208083 -2.8331 0.0025 0.836061 0.778295 2.32724 0.00598043 127 4 1 7.71608e-07 
-0.184724 -0.200591 -2.90084 0.0025 0.841541 0.785444 2.33334 0.00594148 128 4 1 7.03356e-07 
-0.181763 -0.193148 -2.85578 0.0025 0.847024 0.792614 2.33941 0.00590302 129 4 1 5.93486e-07 
-0.178821 -0.185877 -2.80269 0.0025 0.852428 0.799704 2.34536 0.00586559 130 4 1 6.35694e-07 
-0.175898 -0.17872 -2.82811 0.0025 0.857802 0.806776 2.35126 0.00582885 131 4 1 7.55999e-07 
-0.172992 -0.171425 -2.92948 0.0025 0.863248 0.813954 2.35722 0.00579208 132 4 1 6.94398e-07 
-0.170105 -0.164106 -2.88561 0.0025 0.868717 0.821175 2.36319 0.00575561 133 4 1 5.03349e-07 
-0.167237 -0.157062 -2.76458 0.0025 0.874062 0.828259 2.36899 0.00572042 134 4 1 5.50121e-07 
-0.164385 -0.150199 -2.79935 0.0025 0.879339 0.835275 2.3747 0.00568609 135 4 1 7.62389e-07 
-0.16155 -0.143148 -2.95177 0.0025 0.884729 0.842453 2.38051 0.00565145 136 4 1 7.34979e-07 
-0.158733 -0.135925 -2.9476 0.0025 0.890206 0.849753 2.3864 0.00561668 137 4 1 4.69064e-07 
-0.155934 -0.128996 -2.77313 0.0025 0.895552 0.856904 2.39212 0.00558315 138 4 1 4.43116e-07 
-0.15315 -0.122369 -2.75945 0.0025 0.900762 0.863901 2.39767 0.00555085 139 4 1 7.07876e-07 
-0.150383 -0.115583 -2.94056 0.0025 0.906071 0.871042 2.40331 0.00551833 140 4 1 7.8019e-07 
-0.147632 -0.108503 -3.01301 0.0025 0.911535 0.878394 2.40911 0.00548525 141 4 1 4.75897e-07 
-0.144897 -0.101644 -2.80659 0.0025 0.916895 0.885625 2.41476 0.00545319 142 4 1 3.08119e-07 
-0.142179 -0.0952472 -2.68709 0.0025 0.922024 0.892577 2.42015 0.00542285 143 4 1 5.57515e-07 
-0.139475 -0.0888509 -2.83673 0.0025 0.927159 0.899556 2.42553 0.00539282 144 4 1 8.00583e-07 
-0.136786 -0.0820799 -3.02987 0.0025 0.932511 0.906828 2.43113 0.00536186 145 4 1 6.12109e-07 
-0.134113 -0.0752409 -2.91833 0.0025 0.937908 0.914172 2.43675 0.00533101 146 4 1 3.18513e-07 
-0.131455 -0.0688218 -2.73409 0.0025 0.943096 0.921259 2.44213 0.00530169 147 4 1 3.59512e-07 
-0.128811 -0.0626922 -2.71489 0.0025 0.948136 0.928169 2.44733 0.00527351 148 4 1 6.5045e-07 
-0.126181 -0.0563489 -2.93819 0.0025 0.953296 0.935254 2.45265 0.00524496 149 4 1 7.36953e-07 
-0.123566 -0.049693 -3.02625 0.0025 0.95864 0.942591 2.45815 0.00521572 150 4 1 3.87277e-07 
-0.120965 -0.0432205 -2.77957 0.0025 0.963859 0.949768 2.4635 0.00518748 151 4 1 5.19329e-08 
-0.118378 -0.0374753 -2.45069 0.0025 0.968696 0.956459 2.46842 0.00516158 152 4 1 4.7791e-07 
-0.115804 -0.0318164 -2.81846 0.0025 0.973544 0.963197 2.47334 0.00513587 153 4 1 1.11332e-06 
-0.113242 -0.0250841 -3.35613 0.0025 0.978917 0.970625 2.47883 0.00510768 154 4 1 2.2142e-07 
-0.110696 -0.0185084 -2.52332 0.0025 0.984059 0.977714 2.48404 0.005081 155 4 1 -9.38651e-07 
-0.108161 -0.0143127 -1.46995 0.0025 0.988037 0.983306 2.48798 0.00506054 156 4 1 9.30495e-07 
-0.105635 -0.00965477 -3.25769 0.0025 0.992488 0.989602 2.49246 0.00503784 157 4 1 2.69693e-06 
-0.103124 -0.000975409 -4.61443 0.0025 0.998822 0.998344 2.49892 0.00500589 158 4 1 -8.98195e-07 
-0.10063 0.00589382 -1.52089 0.0025 1.00396 1.00542 2.50405 0.00498028 159 4 1 -3.04812e-06 
-0.0981433 0.00668639 0.31269 0.0025 1.00593 1.00833 2.50587 0.00497054 160 4 1 1.3426e-06 
-0.095659 0.00935661 -3.1948 0.0025 1.00885 1.01255 2.50879 0.00495613 161 4 1 3.27042e-06 
-0.0931871 0.0176385 -4.15679 0.0025 1.01453 1.02039 2.51456 0.00492838 162 4 1 -1.04997e-06 
-0.0907306 0.023324 -1.44241 0.0025 1.01904 1.02664 2.51902 0.0049066 163 4 1 -2.66832e-06 
-0.0882805 0.0244579 0.0769908 0.0025 1.02051 1.02877 2.52042 0.00489953 164 3 1 -1.14593e-06 
-0.085831 0.0242244 0.191738 0.0025 1.02047 1.02876 2.52037 0.0048997 165 4 1 -2.71211e-07 
-0.0833808 0.0237766 0.236425 0.0025 1.02004 1.02816 2.51995 0.00490176 166 4 1 -2.45536e-07 
-0.0809293 0.023039 0.399425 0.0025 1.01931 1.02714 2.51923 0.00490527 167 4 1 -2.88902e-07 
-0.0784756 0.0218799 0.616959 0.0025 1.01823 1.02561 2.51816 0.00491047 168 4 1 -2.59361e-07 
-0.0760188 0.0203003 0.815912 0.0025 1.01682 1.02363 2.51676 0.00491728 169 4 1 -1.7257e-07 
-0.0735583 0.0183951 0.957923 0.0025 1.01517 1.0213 2.51512 0.00492529 170 4 1 -6.82674e-08 
-0.0710935 0.0162938 1.03385 0.0025 1.01337 1.01878 2.51333 0.00493402 171 4 1 2.74147e-08 
-0.0686243 0.0141235 1.04918 0.0025 1.01154 1.01621 2.51151 0.00494294 172 4 1 1.02444e-07 
-0.0661506 0.0119921 1.01541 0.0025 1.00976 1.0137 2.50974 0.00495166 173 4 1 1.5374e-07 
-0.0636726 0.0099819 0.945644 0.0025 1.0081 1.01136 2.50808 0.00495984 174 4 1 1.83063e-07 
-0.0611907 0.00814953 0.852433 0.0025 1.00659 1.00925 2.50658 0.00496727 175 4 1 1.94341e-07 
-0.0587053 0.00652834 0.746646 0.0025 1.00526 1.00738 2.50525 0.00497383 176 4 1 1.92056e-07 
-0.0562169 0.00513215 0.637083 0.0025 1.00412 1.00579 2.50412 0.00497946 177 4 1 1.80396e-07 
-0.0537259 0.00395953 0.530427 0.0025 1.00317 1.00445 2.50317 0.00498418 178 4 1 1.62886e-07 
-0.0512327 0.00299793 0.431388 0.0025 1.0024 1.00336 2.50239 0.00498804 179 4 1 1.42317e-07 
-0.0487378 0.00222733 0.342941 0.0025 1.00178 1.00249 2.50177 0.00499113 180 4 1 1.20795e-07 
-0.0462416 0.00162356 0.266603 0.0025 1.00129 1.00181 2.50129 0.00499355 181 4 1 9.98338e-08 
-0.0437443 0.0011609 0.20273 0.0025 1.00092 1.0013 2.50092 0.00499539 182 4 1 8.0455e-08 
-0.0412462 0.000814078 0.150813 0.0025 1.00065 1.00091 2.50064 0.00499677 183 4 1 6.32745e-08 
-0.0387475 0.00055972 0.109762 0.0025 1.00044 1.00062 2.50044 0.00499779 184 4 1 4.85853e-08 
-0.0362484 0.000377208 0.0781536 0.0025 1.0003 1.00042 2.5003 0.00499851 185 4 1 3.64322e-08 
-0.033749 0.000249085 0.0544372 0.0025 1.0002 1.00028 2.5002 0.00499902 186 4 1 2.66816e-08 
-0.0312494 0.0001611 0.0370872 0.0025 1.00013 1.00018 2.50013 0.00499936 187 4 1 1.90848e-08 
-0.0287496 0.000102005 0.0247079 0.0025 1.00008 1.00011 2.50008 0.0049996 188 4 1 1.33315e-08 
-0.0262498 6.31949e-05 0.0160914 0.0025 1.00005 1.00007 2.50005 0.00499975 189 4 1 9.09342e-09 
-0.0237499 3.82815e-05 0.0102405 0.0025 1.00003 1.00004 2.50003 0.00499985 190 4 1 6.0553e-09 
-0.0212499 2.26568e-05 0.00636482 0.0025 1.00002 1.00003 2.50002 0.00499991 191 4 1 3.93525e-09 
-0.01875 1.30887e-05 0.00386103 0.0025 1.00001 1.00001 2.50001 0.00499995 192 4 1 2.49496e-09 
-0.01625 7.37198e-06 0.00228404 0.0025 1.00001 1.00001 2.50001 0.00499997 193 4 1 1.54237e-09 
-0.01375 4.04231e-06 0.00131612 0.0025 1 1 2.5 0.00499998 194 4 1 9.29229e-10 
-0.01125 2.15357e-06 0.000737392 0.0025 1 1 2.5 0.00499999 195 4 1 5.45521e-10 
-0.00875 1.11052e-06 0.000400089 0.0025 1 1 2.5 0.005 196 4 1 3.12724e-10 
-0.00625 5.47906e-07 0.000207433 0.0025 1 1 2.5 0.005 197 4 1 1.77058e-10 
-0.00375 2.45499e-07 9.7032e-05 0.0025 1 1 2.5 0.005 198 4 1 1.03593e-10 
-0.00125 6.93548e-08 2.81467e-05 0.0025 1 1 2.5 0.005 199 5 1 7.16415e-11 
0.00125 -6.93548e-08 -2.81467e-05 0.0025 1 1 2.5 0.005 200 4 1 7.16415e-11 
0.00375 -2.45499e-07 -9.7032e-05 0.0025 1 1 2.5 0.005 201 4 1 1.03593e-10 
0.00625 -5.47906e-07 -0.000207433 0.0025 1 1 2.5 0.005 202 4 1 1.77058e-10 
0.00875 -1.11052e-06 -0.000400089 0.0025 1 1 2.5 0.005 203 4 1 3.12724e-10 
0.01125 -2.15357e-06 -0.000737392 0.0025 1 1 2.5 0.00499999 204 4 1 5.45521e-10 
0.01375 -4.04231e-06 -0.00131612 0.0025 1 1 2.5 0.00499998 205 4 1 9.29228e-10 
0.01625 -7.37198e-06 -0.00228404 0.0025 1.00001 1.00001 2.50001 0.00499997 206 4 1 1.54237e-09 
0.01875 -1.30887e-05 -0.00386103 0.0025 1.00001 1.00001 2.50001 0.00499995 207 4 1 2.49496e-09 
0.0212499 -2.26568e-05 -0.00636482 0.0025 1.00002 1.00003 2.50002 0.00499991 208 4 1 3.93525e-09 
0.0237499 -3.82815e-05 -0.0102405 0.0025 1.00003 1.00004 2.50003 0.00499985 209 4 1 6.0553e-09 
0.0262498 -6.31949e-05 -0.0160914 0.0025 1.00005 1.00007 2.50005 0.00499975 210 4 1 9.09342e-09 
0.0287496 -0.000102005 -0.0247079 0.0025 1.00008 1.00011 2.50008 0.0049996 211 4 1 1.33315e-08 
0.0312494 -0.0001611 -0.0370872 0.0025 1.00013 1.00018 2.50013 0.00499936 212 4 1 1.90848e-08 
0.033749 -0.000249085 -0.0544372 0.0025 1.0002 1.00028 2.5002 0.00499902 213 4 1 2.66816e-08 
