# Time [s]: 0.327043
# Columns: pos [m], vel [m/s], acc [m/s^2], mass [kg], dens [kg/m^3], pres [Pa], ene [J/kg], sml [m], id, neighbor, alpha, gradh, ...additional?
1.28209 -0.673091 0.000330395 0.0025 0.511052 0.432728 2.1525 0.00978375 0 4 1 -0.000134225 
1.28688 -0.673092 0.000342631 0.0025 0.536909 0.42619 1.95004 0.00931257 1 4 1 0.000179252 
1.29141 -0.673094 0.000355753 0.0025 0.548238 0.43086 1.9685 0.00912012 2 3 1 -1.90586e-05 
1.296 -0.673095 0.000371432 0.0025 0.545973 0.429195 1.96465 0.00915797 3 5 1 3.48577e-06 
1.30057 -0.673096 0.000389405 0.0025 0.54637 0.429349 1.96458 0.0091513 4 4 1 -1.38717e-07 
1.30515 -0.673098 0.000408766 0.0025 0.546381 0.429319 1.96435 0.00915113 5 4 1 1.43687e-07 
1.30972 -0.673099 0.000428946 0.0025 0.546403 0.429317 1.96429 0.00915076 6 4 1 -3.55603e-09 
1.3143 -0.673101 0.000450534 0.0025 0.546416 0.429313 1.96422 0.00915054 7 4 1 8.1858e-09 
1.31887 -0.673103 0.000474963 0.0025 0.546429 0.429312 1.96417 0.00915032 8 4 1 4.70854e-09 
1.32345 -0.673105 0.000503245 0.0025 0.546441 0.42931 1.96412 0.00915013 9 4 1 5.41178e-09 
1.32802 -0.673108 0.000534886 0.0025 0.546451 0.429309 1.96408 0.00914995 10 4 1 -2.31167e-09 
1.3326 -0.67311 0.00056812 0.0025 0.546461 0.429308 1.96403 0.00914978 11 4 1 4.65179e-09 
1.33717 -0.673113 0.00060154 0.0025 0.54647 0.429306 1.964 0.00914963 12 4 1 2.77173e-09 
1.34175 -0.673116 0.000635852 0.0025 0.546478 0.429305 1.96396 0.00914949 13 4 1 3.48834e-09 
1.34632 -0.673119 0.000674038 0.0025 0.546485 0.429303 1.96393 0.00914938 14 4 1 2.02659e-09 
1.3509 -0.673122 0.000719302 0.0025 0.546491 0.429301 1.9639 0.00914928 15 4 1 -1.6896e-09 
1.35547 -0.673125 0.000772166 0.0025 0.546497 0.429299 1.96387 0.00914918 16 4 1 4.78075e-09 
1.36005 -0.673129 0.000829349 0.0025 0.546502 0.429297 1.96384 0.0091491 17 4 1 1.35399e-09 
1.36462 -0.673133 0.000886198 0.0025 0.546506 0.429295 1.96382 0.00914904 18 4 1 -1.31838e-09 
1.3692 -0.673137 0.000941387 0.0025 0.546509 0.429292 1.96379 0.00914897 19 4 1 2.57933e-09 
1.37377 -0.673142 0.000999905 0.0025 0.546513 0.42929 1.96377 0.00914892 20 4 1 1.04103e-09 
1.37834 -0.673147 0.00107073 0.0025 0.546515 0.429287 1.96375 0.00914888 21 4 1 1.03583e-09 
1.38292 -0.673152 0.00115991 0.0025 0.546517 0.429284 1.96373 0.00914885 22 4 1 8.62854e-10 
1.38749 -0.673158 0.0012646 0.0025 0.546518 0.429281 1.96371 0.00914883 23 4 1 -3.96922e-10 
1.39207 -0.673164 0.0013738 0.0025 0.546519 0.429278 1.96369 0.00914881 24 4 1 1.2465e-09 
1.39664 -0.67317 0.00147661 0.0025 0.546519 0.429274 1.96367 0.00914881 25 3 1 5.21291e-10 
1.40122 -0.673178 0.00157163 0.0025 0.546519 0.42927 1.96365 0.00914881 26 4 1 -5.60386e-10 
1.40579 -0.673185 0.00166976 0.0025 0.546519 0.429266 1.96364 0.00914882 27 4 1 1.01268e-09 
1.41037 -0.673194 0.00178771 0.0025 0.546518 0.429261 1.96362 0.00914884 28 4 1 6.04946e-10 
1.41494 -0.673203 0.00193705 0.0025 0.546516 0.429256 1.9636 0.00914886 29 4 1 -1.10765e-09 
1.41951 -0.673212 0.00211735 0.0025 0.546514 0.429251 1.96359 0.0091489 30 4 1 8.08656e-11 
1.42409 -0.673223 0.00231834 0.0025 0.546511 0.429245 1.96357 0.00914894 31 4 1 1.47567e-09 
1.42866 -0.673234 0.0025284 0.0025 0.546508 0.429239 1.96355 0.009149 32 4 1 -1.39237e-09 
1.43324 -0.673246 0.00274241 0.0025 0.546504 0.429232 1.96354 0.00914907 33 4 1 -1.39605e-09 
1.43781 -0.67326 0.00296371 0.0025 0.546499 0.429225 1.96352 0.00914914 34 4 1 1.50972e-09 
1.44239 -0.673274 0.00320138 0.0025 0.546494 0.429216 1.9635 0.00914923 35 4 1 -8.74897e-10 
1.44696 -0.67329 0.0034676 0.0025 0.546488 0.429208 1.96348 0.00914933 36 4 1 -1.63042e-09 
1.45154 -0.673307 0.00377556 0.0025 0.546481 0.429198 1.96346 0.00914945 37 4 1 5.6069e-10 
1.45611 -0.673326 0.00413252 0.0025 0.546473 0.429188 1.96344 0.00914958 38 4 1 -8.93565e-10 
1.46069 -0.673347 0.00452565 0.0025 0.546465 0.429176 1.96342 0.00914972 39 4 1 -1.80133e-09 
1.46526 -0.67337 0.00491337 0.0025 0.546455 0.429164 1.9634 0.00914989 40 4 1 -3.46307e-10 
1.46984 -0.673396 0.00524541 0.0025 0.546444 0.42915 1.96338 0.00915007 41 4 1 -5.16123e-10 
1.47441 -0.673425 0.00551806 0.0025 0.546432 0.429136 1.96335 0.00915027 42 4 1 -1.51927e-09 
1.47899 -0.673459 0.00582493 0.0025 0.546419 0.42912 1.96333 0.00915048 43 4 1 -1.08614e-09 
1.48356 -0.673497 0.00633637 0.0025 0.546406 0.429103 1.9633 0.00915071 44 4 1 -6.89602e-10 
1.48814 -0.67354 0.0071926 0.0025 0.54639 0.429085 1.96327 0.00915097 45 4 1 -2.90424e-09 
1.49271 -0.673586 0.00840287 0.0025 0.546372 0.429064 1.96324 0.00915127 46 4 1 -4.15952e-09 
1.49729 -0.673636 0.00986525 0.0025 0.546352 0.42904 1.96321 0.00915162 47 4 1 -3.56004e-09 
-0.498136 -0.673691 0.0114839 0.0025 0.546327 0.429012 1.96317 0.00915203 48 4 1 -4.38919e-09 
-0.49356 -0.673749 0.0132369 0.0025 0.546299 0.42898 1.96312 0.00915251 49 4 1 -5.70796e-09 
-0.488984 -0.673814 0.0151351 0.0025 0.546266 0.428942 1.96307 0.00915306 50 4 1 -5.80007e-09 
-0.484407 -0.673886 0.0171663 0.0025 0.546228 0.4289 1.96301 0.00915369 51 4 1 -5.20632e-09 
-0.47983 -0.673965 0.0193023 0.0025 0.546185 0.428851 1.96294 0.00915441 52 4 1 -6.18053e-09 
-0.475253 -0.674055 0.0215397 0.0025 0.546137 0.428797 1.96287 0.00915522 53 4 1 -7.13087e-09 
-0.470675 -0.674155 0.0239331 0.0025 0.546083 0.428737 1.96279 0.00915612 54 4 1 -6.51283e-09 
-0.466097 -0.674266 0.0265462 0.0025 0.546023 0.428671 1.9627 0.00915712 55 4 1 -6.06236e-09 
-0.461518 -0.674389 0.0292812 0.0025 0.545958 0.428598 1.9626 0.00915822 56 4 1 -6.77199e-09 
-0.456939 -0.674522 0.0318354 0.0025 0.545887 0.428519 1.96249 0.00915941 57 4 1 -5.96263e-09 
-0.452359 -0.674665 0.0338791 0.0025 0.545811 0.428435 1.96238 0.00916068 58 4 1 -2.55487e-09 
-0.447778 -0.674815 0.0351345 0.0025 0.545732 0.428348 1.96226 0.009162 59 4 1 1.90797e-10 
-0.443197 -0.67497 0.0354598 0.0025 0.545653 0.42826 1.96214 0.00916333 60 4 1 3.04315e-09 
-0.438615 -0.675122 0.0347037 0.0025 0.545577 0.428176 1.96203 0.00916461 61 4 1 7.53228e-09 
-0.434032 -0.675263 0.032165 0.0025 0.545507 0.428098 1.96193 0.00916579 62 4 1 1.34881e-08 
-0.429449 -0.675385 0.0277697 0.0025 0.545447 0.428032 1.96184 0.0091668 63 4 1 1.96623e-08 
-0.424865 -0.675477 0.0203143 0.0025 0.545403 0.427984 1.96177 0.00916753 64 4 1 2.83095e-08 
-0.420281 -0.675527 0.00632839 0.0025 0.545383 0.427961 1.96174 0.00916787 65 4 1 1.73217e-08 
-0.415697 -0.675556 0.0177984 0.0025 0.545379 0.427958 1.96173 0.00916794 66 5 1 9.93524e-08 
-0.411113 -0.675496 -0.0623747 0.0025 0.545457 0.428049 1.96184 0.00916662 67 4 1 2.37548e-07 
-0.406531 -0.674974 -0.164651 0.0025 0.545728 0.428347 1.96223 0.00916207 68 4 1 2.67816e-07 
-0.401951 -0.67407 -0.235611 0.0025 0.546214 0.428885 1.96292 0.00915392 69 4 1 4.08754e-07 
-0.397377 -0.672677 -0.413998 0.0025 0.547014 0.429776 1.96406 0.00914054 70 4 1 7.87355e-07 
-0.392811 -0.670159 -0.751101 0.0025 0.548383 0.431292 1.96603 0.00911772 71 4 1 1.14948e-06 
-0.388259 -0.666071 -1.13265 0.0025 0.550509 0.433631 1.96907 0.00908251 72 4 1 1.20934e-06 
-0.383728 -0.66062 -1.38309 0.0025 0.553318 0.436724 1.97308 0.0090364 73 4 1 1.12162e-06 
-0.379223 -0.6543 -1.56822 0.0025 0.556628 0.440382 1.9778 0.00898265 74 4 1 1.13965e-06 
-0.374745 -0.647268 -1.73676 0.0025 0.560352 0.444511 1.98308 0.00892297 75 4 1 1.27609e-06 
-0.370299 -0.639539 -1.93375 0.0025 0.564484 0.449109 1.98891 0.00885764 76 4 1 1.47795e-06 
-0.365888 -0.631001 -2.15122 0.0025 0.569059 0.454214 1.99534 0.00878643 77 4 1 1.64105e-06 
-0.361513 -0.621704 -2.35702 0.0025 0.574074 0.459824 2.00236 0.00870968 78 4 1 1.69519e-06 
-0.357178 -0.611742 -2.51125 0.0025 0.579457 0.465867 2.00985 0.00862877 79 4 1 1.64559e-06 
-0.352884 -0.601398 -2.60754 0.0025 0.585093 0.472217 2.01764 0.00854564 80 4 1 1.52408e-06 
-0.348632 -0.590911 -2.63984 0.0025 0.590856 0.478735 2.02557 0.0084623 81 4 1 1.3757e-06 
-0.344421 -0.580505 -2.63009 0.0025 0.596635 0.4853 2.03347 0.00838033 82 4 1 1.28162e-06 
-0.340251 -0.570247 -2.62197 0.0025 0.60238 0.491853 2.04127 0.00830041 83 4 1 1.19452e-06 
-0.336121 -0.560197 -2.58723 0.0025 0.608059 0.498355 2.04895 0.00822288 84 4 1 1.10825e-06 
-0.332028 -0.550382 -2.55342 0.0025 0.613648 0.504778 2.05646 0.00814799 85 4 1 1.04295e-06 
-0.327973 -0.540836 -2.51258 0.0025 0.619139 0.511113 2.0638 0.00807572 86 4 1 1.00018e-06 
-0.323952 -0.531497 -2.48655 0.0025 0.62454 0.517365 2.07098 0.00800589 87 4 1 9.62784e-07 
-0.319967 -0.522341 -2.45388 0.0025 0.629858 0.523543 2.07801 0.00793829 88 4 1 9.17731e-07 
-0.316014 -0.513427 -2.42257 0.0025 0.635095 0.529647 2.0849 0.00787284 89 4 1 9.16322e-07 
-0.312094 -0.504646 -2.41698 0.0025 0.640274 0.535705 2.09169 0.00780915 90 4 1 9.12497e-07 
-0.308205 -0.495994 -2.40352 0.0025 0.645418 0.541741 2.09839 0.00774692 91 4 1 9.22839e-07 
-0.304347 -0.487413 -2.41707 0.0025 0.650548 0.54778 2.10505 0.00768583 92 4 1 9.63378e-07 
-0.300519 -0.478854 -2.4425 0.0025 0.655702 0.553866 2.1117 0.00762542 93 4 1 9.96531e-07 
-0.296721 -0.470269 -2.47742 0.0025 0.660905 0.56003 2.11839 0.00756539 94 4 1 1.06638e-06 
-0.292953 -0.461585 -2.55044 0.0025 0.666198 0.56632 2.12515 0.00750528 95 4 1 1.10512e-06 
-0.289216 -0.452759 -2.60137 0.0025 0.671595 0.572753 2.13203 0.00744496 96 4 1 1.08689e-06 
-0.285508 -0.44389 -2.63641 0.0025 0.677071 0.579302 2.13896 0.00738475 97 4 1 1.12128e-06 
-0.281831 -0.434933 -2.70502 0.0025 0.682635 0.585977 2.14597 0.00732456 98 4 1 1.13931e-06 
-0.278183 -0.425844 -2.7485 0.0025 0.688287 0.592779 2.15306 0.00726441 99 4 1 1.08456e-06 
-0.274566 -0.416791 -2.75867 0.0025 0.693982 0.599656 2.16017 0.00720479 100 4 1 1.07278e-06 
-0.270978 -0.407737 -2.79346 0.0025 0.699707 0.606592 2.16728 0.00714585 101 4 1 1.05794e-06 
-0.26742 -0.398697 -2.80122 0.0025 0.705455 0.613578 2.17439 0.00708763 102 4 1 1.01706e-06 
-0.263891 -0.389765 -2.80572 0.0025 0.711202 0.620588 2.18145 0.00703035 103 4 1 1.01599e-06 
-0.26039 -0.380843 -2.82612 0.0025 0.716954 0.627626 2.18849 0.00697395 104 4 1 9.9929e-07 
-0.256917 -0.371988 -2.82868 0.0025 0.722708 0.634688 2.1955 0.00691842 105 4 1 9.57315e-07 
-0.253471 -0.363213 -2.82117 0.0025 0.728445 0.641752 2.20246 0.00686394 106 4 1 9.52611e-07 
-0.250053 -0.354516 -2.83641 0.0025 0.734171 0.648826 2.20936 0.0068104 107 4 1 9.52268e-07 
-0.246661 -0.345845 -2.84456 0.0025 0.739897 0.65592 2.21624 0.0067577 108 4 1 8.91976e-07 
-0.243295 -0.337296 -2.81372 0.0025 0.745591 0.662999 2.22305 0.00670609 109 4 1 9.054e-07 
-0.239954 -0.328845 -2.84899 0.0025 0.751274 0.670085 2.22981 0.00665536 110 4 1 9.28639e-07 
-0.236639 -0.320371 -2.85965 0.0025 0.756973 0.677211 2.23656 0.00660525 111 4 1 8.73306e-07 
-0.233349 -0.312002 -2.84604 0.0025 0.762657 0.684339 2.24326 0.00655603 112 4 1 8.40713e-07 
-0.230083 -0.303729 -2.83683 0.0025 0.76831 0.691452 2.2499 0.00650779 113 4 1 8.67731e-07 
-0.226841 -0.295501 -2.86941 0.0025 0.773963 0.698587 2.2565 0.00646026 114 4 1 8.70794e-07 
-0.223623 -0.28727 -2.87649 0.0025 0.779628 0.705753 2.2631 0.00641331 115 4 1 7.77034e-07 
-0.220428 -0.279176 -2.82114 0.0025 0.785245 0.712882 2.2696 0.00636744 116 4 1 7.91529e-07 
-0.217255 -0.271219 -2.85775 0.0025 0.790836 0.720001 2.27605 0.00632242 117 4 1 8.73064e-07 
-0.214105 -0.263168 -2.9071 0.0025 0.796471 0.727191 2.28253 0.00627769 118 4 1 7.90742e-07 
-0.210978 -0.255178 -2.8609 0.0025 0.802095 0.734388 2.28896 0.00623367 119 4 1 7.28242e-07 
-0.207872 -0.24737 -2.84935 0.0025 0.807667 0.741542 2.29531 0.00619067 120 4 1 7.81672e-07 
-0.204787 -0.23958 -2.88348 0.0025 0.81324 0.748717 2.30163 0.00614824 121 4 1 8.06747e-07 
-0.201723 -0.231766 -2.91143 0.0025 0.818841 0.755943 2.30796 0.00610619 122 4 1 7.31593e-07 
-0.198681 -0.224028 -2.86858 0.0025 0.824417 0.763158 2.31423 0.00606489 123 4 1 6.75515e-07 
-0.195658 -0.216449 -2.84641 0.0025 0.829935 0.770321 2.32041 0.00602457 124 4 1 7.28083e-07 
-0.192656 -0.208923 -2.88226 0.0025 0.835449 0.777498 2.32656 0.0059848 125 4 1 7.89144e-07 
-0.189673 -0.201323 -2.93827 0.0025 0.841013 0.784755 2.33275 0.00594521 126 4 1 7.1321e-07 
-0.186711 -0.193741 -2.89184 0.0025 0.84657 0.79202 2.33891 0.00590618 127 4 1 6.13368e-07 
-0.183767 -0.186392 -2.84088 0.0025 0.852049 0.799207 2.34495 0.00586821 128 4 1 6.7231e-07 
-0.180842 -0.17909 -2.88405 0.0025 0.857511 0.806393 2.35094 0.00583083 129 4 1 7.86828e-07 
-0.177936 -0.17168 -2.97923 0.0025 0.863052 0.813695 2.35701 0.00579339 130 4 1 6.90001e-07 
-0.175049 -0.164259 -2.91082 0.0025 0.868595 0.821014 2.36306 0.00575642 131 4 1 5.08356e-07 
-0.17218 -0.157162 -2.79866 0.0025 0.874004 0.828183 2.36893 0.0057208 132 4 1 5.99952e-07 
-0.169328 -0.150175 -2.86406 0.0025 0.879371 0.835319 2.37473 0.00568588 133 4 1 8.03836e-07 
-0.166494 -0.142947 -3.01298 0.0025 0.884868 0.842636 2.38066 0.00565056 134 4 1 7.12675e-07 
-0.163677 -0.135639 -2.9602 0.0025 0.890416 0.850032 2.38663 0.00561535 135 4 1 4.44813e-07 
-0.160878 -0.128688 -2.78431 0.0025 0.895801 0.857238 2.39238 0.0055816 136 4 1 5.09996e-07 
-0.158096 -0.121965 -2.83812 0.0025 0.901093 0.864349 2.39802 0.00554882 137 4 1 7.89424e-07 
-0.15533 -0.114967 -3.03125 0.0025 0.906536 0.871667 2.40381 0.0055155 138 4 1 7.43192e-07 
-0.15258 -0.107778 -3.01896 0.0025 0.912084 0.879131 2.40969 0.00548195 139 4 1 4.01155e-07 
-0.149848 -0.100942 -2.78319 0.0025 0.917453 0.886381 2.41535 0.00544987 140 4 1 3.60009e-07 
-0.14713 -0.0945192 -2.74796 0.0025 0.922627 0.8934 2.42078 0.00541931 141 4 1 6.8792e-07 
-0.144428 -0.0879015 -2.96247 0.0025 0.927907 0.900572 2.42631 0.00538847 142 4 1 8.07293e-07 
-0.141742 -0.0809382 -3.07115 0.0025 0.93339 0.90802 2.43205 0.00535682 143 4 1 5.09527e-07 
-0.139071 -0.0741035 -2.88636 0.0025 0.938812 0.915403 2.43769 0.00532588 144 4 1 2.90619e-07 
-0.136416 -0.0677555 -2.72798 0.0025 0.943995 0.922492 2.44305 0.00529664 145 4 1 4.86003e-07 
-0.133775 -0.0614747 -2.84053 0.0025 0.949132 0.929541 2.44836 0.00526797 146 4 1 7.68336e-07 
-0.131148 -0.0548751 -3.06506 0.0025 0.954474 0.93687 2.45387 0.00523849 147 4 1 6.30537e-07 
-0.128536 -0.048092 -2.98386 0.0025 0.959887 0.944301 2.45943 0.00520895 148 4 1 1.93647e-07 
-0.125939 -0.0418568 -2.63671 0.0025 0.965007 0.951355 2.46466 0.00518131 149 4 1 1.94451e-07 
-0.123355 -0.0361638 -2.59817 0.0025 0.96987 0.958099 2.46961 0.00515533 150 4 1 8.80356e-07 
-0.120784 -0.0299027 -3.20484 0.0025 0.975061 0.965294 2.4749 0.00512788 151 4 1 8.38647e-07 
-0.118227 -0.0228917 -3.11196 0.0025 0.980521 0.972819 2.48047 0.00509933 152 4 1 -5.33511e-07 
-0.115684 -0.0174092 -1.86542 0.0025 0.985128 0.979216 2.48509 0.00507548 153 4 1 -2.43879e-07 
-0.113151 -0.0133927 -2.18018 0.0025 0.989185 0.984964 2.48912 0.00505467 154 4 1 2.28888e-06 
-0.11063 -0.00647133 -4.42967 0.0025 0.99481 0.992812 2.49484 0.00502609 155 4 1 1.30038e-06 
-0.108125 0.00240594 -3.41644 0.0025 1.00109 1.00143 2.50122 0.00499455 156 4 1 -2.84369e-06 
-0.105635 0.00588363 0.0905443 0.0025 1.00445 1.00616 2.50446 0.00497783 157 4 1 -1.15571e-06 
-0.103147 0.00638305 -1.26027 0.0025 1.00638 1.00907 2.5063 0.00496829 158 4 1 3.49143e-06 
-0.100667 0.0129503 -4.67507 0.0025 1.01122 1.01583 2.51123 0.0049445 159 4 1 1.20613e-06 
-0.0982029 0.0211365 -2.79087 0.0025 1.01699 1.02377 2.51702 0.00491645 160 4 1 -2.7649e-06 
-0.0957502 0.0237865 -0.24699 0.0025 1.01979 1.02773 2.51973 0.00490297 161 4 1 -1.72915e-06 
-0.0932999 0.0241633 -0.0364325 0.0025 1.02042 1.02868 2.52032 0.00489994 162 4 1 -4.05527e-07 
-0.0908502 0.0241692 0.0347898 0.0025 1.02044 1.02871 2.52034 0.00489986 163 3 1 -3.65014e-07 
-0.0884 0.0238019 0.230524 0.0025 1.02001 1.02812 2.51992 0.0049019 164 4 1 -3.63979e-07 
-0.0859483 0.0229231 0.493109 0.0025 1.01916 1.02691 2.51908 0.00490602 165 4 1 -3.30934e-07 
-0.083494 0.021534 0.735703 0.0025 1.01789 1.02513 2.51782 0.00491211 166 4 1 -2.38215e-07 
-0.0810362 0.0197348 0.918286 0.0025 1.01631 1.02291 2.51625 0.00491975 167 4 1 -1.23973e-07 
-0.0785742 0.0176646 1.02935 0.0025 1.01453 1.0204 2.51448 0.00492839 168 4 1 -1.53179e-08 
-0.0761078 0.0154636 1.07281 0.0025 1.01266 1.01778 2.51263 0.00493747 169 4 1 7.32548e-08 
-0.0736368 0.0132539 1.05988 0.0025 1.01081 1.01518 2.51078 0.00494653 170 4 1 1.37015e-07 
-0.0711613 0.0111322 1.00402 0.0025 1.00905 1.0127 2.50903 0.00495518 171 4 1 1.76765e-07 
-0.0686816 0.00916817 0.918554 0.0025 1.00742 1.01042 2.50741 0.00496316 172 4 1 1.96114e-07 
-0.0661981 0.00740636 0.815344 0.0025 1.00598 1.00839 2.50597 0.00497029 173 4 1 1.99609e-07 
-0.0637113 0.00586982 0.704259 0.0025 1.00472 1.00663 2.50471 0.0049765 174 4 1 1.91688e-07 
-0.0612216 0.00456416 0.593057 0.0025 1.00366 1.00514 2.50366 0.00498176 175 4 1 1.76212e-07 
-0.0587295 0.0034817 0.487472 0.0025 1.00279 1.00391 2.50278 0.00498611 176 4 1 1.56325e-07 
-0.0562355 0.00260536 0.391398 0.0025 1.00208 1.00292 2.50208 0.00498962 177 4 1 1.34472e-07 
-0.0537399 0.00191215 0.307118 0.0025 1.00152 1.00214 2.50152 0.0049924 178 4 1 1.12479e-07 
-0.0512431 0.00137619 0.23558 0.0025 1.00109 1.00154 2.50109 0.00499454 179 4 1 9.16397e-08 
-0.0487454 0.000971047 0.176683 0.0025 1.00077 1.00108 2.50077 0.00499615 180 4 1 7.27954e-08 
-0.046247 0.000671593 0.129573 0.0025 1.00053 1.00075 2.50053 0.00499734 181 4 1 5.64146e-08 
-0.043748 0.000455151 0.0929204 0.0025 1.00036 1.00051 2.50036 0.0049982 182 4 1 4.26672e-08 
-0.0412488 0.000302167 0.0651575 0.0025 1.00024 1.00034 2.50024 0.00499881 183 4 1 3.14984e-08 
-0.0387492 0.000196434 0.044671 0.0025 1.00015 1.00022 2.50015 0.00499923 184 4 1 2.26988e-08 
-0.0362495 0.000124988 0.0299375 0.0025 1.0001 1.00014 2.5001 0.00499951 185 4 1 1.59673e-08 
-0.0337497 7.77974e-05 0.019607 0.0025 1.00006 1.00009 2.50006 0.00499969 186 4 1 1.09631e-08 
-0.0312498 4.73405e-05 0.0125445 0.0025 1.00004 1.00005 2.50004 0.00499981 187 4 1 7.34558e-09 
-0.0287499 2.81407e-05 0.00783654 0.0025 1.00002 1.00003 2.50002 0.00499989 188 4 1 4.80177e-09 
-0.0262499 1.63255e-05 0.00477696 0.0025 1.00001 1.00002 2.50001 0.00499994 189 4 1 3.0612e-09 
-0.02375 9.2329e-06 0.00283914 0.0025 1.00001 1.00001 2.50001 0.00499996 190 4 1 1.9023e-09 
-0.02125 5.08333e-06 0.00164359 0.0025 1 1.00001 2.5 0.00499998 191 4 1 1.15151e-09 
-0.01875 2.71991e-06 0.000925588 0.0025 1 1 2.5 0.00499999 192 4 1 6.78392e-10 
-0.01625 1.41134e-06 0.000506258 0.0025 1 1 2.5 0.00499999 193 4 1 3.88529e-10 
-0.01375 7.08281e-07 0.000268395 0.0025 1 1 2.5 0.005 194 4 1 2.16011e-10 
-0.01125 3.42569e-07 0.00013755 0.0025 1 1 2.5 0.005 195 4 1 1.16393e-10 
-0.00875 1.58891e-07 6.78578e-05 0.0025 1 1 2.5 0.005 196 4 1 6.07238e-11 
-0.00625 6.99765e-08 3.18898e-05 0.0025 1 1 2.5 0.005 197 4 1 3.08261e-11 
-0.00375 2.8103e-08 1.36317e-05 0.0025 1 1 2.5 0.005 198 4 1 1.58022e-11 
-0.00125 7.37432e-09 3.73209e-06 0.0025 1 1 2.5 0.005 199 5 1 9.62107e-12 
0.00125 -7.37431e-09 -3.73209e-06 0.0025 1 1 2.5 0.005 200 4 1 9.62106e-12 
0.00375 -2.8103e-08 -1.36317e-05 0.0025 1 1 2.5 0.005 201 4 1 1.58022e-11 
0.00625 -6.99765e-08 -3.18898e-05 0.0025 1 1 2.5 0.005 202 4 1 3.08261e-11 
0.00875 -1.58891e-07 -6.78578e-05 0.0025 1 1 2.5 0.005 203 4 1 6.07238e-11 
0.01125 -3.42569e-07 -0.00013755 0.0025 1 1 2.5 0.005 204 4 1 1.16393e-10 
0.01375 -7.08281e-07 -0.000268395 0.0025 1 1 2.5 0.005 205 4 1 2.16011e-10 
0.01625 -1.41134e-06 -0.000506258 0.0025 1 1 2.5 0.00499999 206 4 1 3.88529e-10 
0.01875 -2.71991e-06 -0.000925588 0.0025 1 1 2.5 0.00499999 207 4 1 6.78392e-10 
0.02125 -5.08333e-06 -0.00164359 0.0025 1 1.00001 2.5 0.00499998 208 4 1 1.15151e-09 
0.02375 -9.2329e-06 -0.00283914 0.0025 1.00001 1.00001 2.50001 0.00499996 209 4 1 1.9023e-09 
0.0262499 -1.63255e-05 -0.00477696 0.0025 1.00001 1.00002 2.50001 0.00499994 210 4 1 3.0612e-09 
0.0287499 -2.81407e-05 -0.00783654 0.0025 1.00002 1.00003 2.50002 0.00499989 211 4 1 4.80177e-09 
0.0312498 -4.73405e-05 -0.0125445 0.0025 1.00004 1.00005 2.50004 0.00499981 212 4 1 7.34558e-09 
0.0337497 -7.77974e-05 -0.019607 0.0025 1.00006 1.00009 2.50006 0.00499969 213 4 1 1.09631e-08 
0.0362495 -0.000124988 -0.0299375 0.0025 1.0001 1.00014 2.5001 0.00499951 214 4 1 1.59673e-08 
