# Time [s]: 0.334463
# Columns: pos [m], vel [m/s], acc [m/s^2], mass [kg], dens [kg/m^3], pres [Pa], ene [J/kg], sml [m], id, neighbor, alpha, gradh, ...additional?
1.2771 -0.673089 0.000290737 0.0025 0.511052 0.432729 2.1525 0.00978373 0 4 1 -0.000134225 
1.28188 -0.67309 0.000301624 0.0025 0.53691 0.426191 1.95004 0.00931256 1 4 1 0.000179252 
1.28642 -0.673091 0.000313615 0.0025 0.548239 0.430861 1.9685 0.00912011 2 3 1 -1.90586e-05 
1.291 -0.673092 0.000327212 0.0025 0.545974 0.429196 1.96465 0.00915795 3 5 1 3.48575e-06 
1.29558 -0.673094 0.000342033 0.0025 0.546372 0.429351 1.96458 0.00915128 4 4 1 -1.38711e-07 
1.30015 -0.673095 0.000358404 0.0025 0.546382 0.42932 1.96435 0.00915111 5 4 1 1.43694e-07 
1.30473 -0.673096 0.000377208 0.0025 0.546404 0.429319 1.96429 0.00915073 6 4 1 -3.55263e-09 
1.3093 -0.673098 0.000399129 0.0025 0.546417 0.429315 1.96423 0.00915052 7 4 1 8.18638e-09 
1.31388 -0.6731 0.000423842 0.0025 0.546431 0.429314 1.96417 0.00915029 8 4 1 4.7102e-09 
1.31845 -0.673102 0.000450021 0.0025 0.546442 0.429312 1.96412 0.00915009 9 4 1 5.41931e-09 
1.32303 -0.673104 0.000476373 0.0025 0.546453 0.429311 1.96408 0.00914992 10 4 1 -2.29715e-09 
1.3276 -0.673106 0.00050295 0.0025 0.546463 0.42931 1.96404 0.00914974 11 4 1 4.66907e-09 
1.33218 -0.673109 0.000531521 0.0025 0.546473 0.429309 1.964 0.00914959 12 4 1 2.78527e-09 
1.33675 -0.673111 0.00056438 0.0025 0.546481 0.429307 1.96396 0.00914945 13 4 1 3.49562e-09 
1.34133 -0.673114 0.00060232 0.0025 0.546488 0.429306 1.96393 0.00914934 14 4 1 2.03308e-09 
1.3459 -0.673117 0.000643567 0.0025 0.546494 0.429304 1.9639 0.00914923 15 4 1 -1.67355e-09 
1.35048 -0.67312 0.000685062 0.0025 0.5465 0.429302 1.96387 0.00914913 16 4 1 4.81253e-09 
1.35505 -0.673123 0.000725589 0.0025 0.546505 0.429301 1.96385 0.00914905 17 4 1 1.39535e-09 
1.35963 -0.673127 0.000768167 0.0025 0.546509 0.429299 1.96382 0.00914898 18 4 1 -1.28424e-09 
1.3642 -0.673131 0.000819058 0.0025 0.546513 0.429296 1.9638 0.00914891 19 4 1 2.59174e-09 
1.36878 -0.673135 0.000883285 0.0025 0.546517 0.429294 1.96378 0.00914885 20 4 1 1.03432e-09 
1.37335 -0.673139 0.000959994 0.0025 0.546519 0.429292 1.96375 0.00914881 21 4 1 1.03267e-09 
1.37792 -0.673144 0.00104194 0.0025 0.546521 0.429289 1.96373 0.00914877 22 4 1 8.9093e-10 
1.3825 -0.673149 0.00112044 0.0025 0.546523 0.429286 1.96372 0.00914874 23 4 1 -3.27655e-10 
1.38707 -0.673154 0.00119239 0.0025 0.546524 0.429283 1.9637 0.00914872 24 4 1 1.33796e-09 
1.39165 -0.67316 0.00126379 0.0025 0.546525 0.42928 1.96368 0.00914871 25 4 1 5.98619e-10 
1.39622 -0.673167 0.00134648 0.0025 0.546525 0.429277 1.96366 0.0091487 26 4 1 -5.2397e-10 
1.4008 -0.673174 0.00145064 0.0025 0.546526 0.429273 1.96365 0.0091487 27 3 1 1.01182e-09 
1.40537 -0.673181 0.00157842 0.0025 0.546525 0.429269 1.96363 0.00914871 28 4 1 5.99126e-10 
1.40994 -0.673189 0.00172354 0.0025 0.546524 0.429265 1.96361 0.00914873 29 4 1 -1.0798e-09 
1.41452 -0.673198 0.00187636 0.0025 0.546522 0.42926 1.9636 0.00914876 30 4 1 1.62494e-10 
1.41909 -0.673207 0.0020303 0.0025 0.54652 0.429255 1.96358 0.00914879 31 4 1 1.60378e-09 
1.42367 -0.673217 0.0021852 0.0025 0.546518 0.42925 1.96357 0.00914884 32 4 1 -1.24221e-09 
1.42824 -0.673228 0.00234674 0.0025 0.546514 0.429244 1.96355 0.00914889 33 4 1 -1.24833e-09 
1.43282 -0.673239 0.00252417 0.0025 0.546511 0.429237 1.96353 0.00914895 34 4 1 1.6411e-09 
1.43739 -0.673252 0.00272694 0.0025 0.546507 0.42923 1.96352 0.00914902 35 4 1 -7.57482e-10 
1.44197 -0.673266 0.00295839 0.0025 0.546502 0.429223 1.9635 0.0091491 36 4 1 -1.49738e-09 
1.44654 -0.673281 0.00320624 0.0025 0.546496 0.429215 1.96348 0.00914919 37 4 1 7.76855e-10 
1.45111 -0.673298 0.00343815 0.0025 0.54649 0.429206 1.96347 0.0091493 38 4 1 -5.0818e-10 
1.45569 -0.673317 0.00361644 0.0025 0.546483 0.429197 1.96345 0.00914942 39 4 1 -1.21455e-09 
1.46026 -0.673338 0.00373523 0.0025 0.546476 0.429187 1.96343 0.00914954 40 4 1 3.30349e-10 
1.46484 -0.673362 0.00385576 0.0025 0.546468 0.429176 1.96341 0.00914967 41 4 1 -8.20124e-12 
1.46941 -0.67339 0.00409846 0.0025 0.546459 0.429165 1.96339 0.00914982 42 4 1 -1.42767e-09 
1.47399 -0.673421 0.0045785 0.0025 0.54645 0.429153 1.96337 0.00914997 43 4 1 -1.41655e-09 
1.47856 -0.673454 0.00533248 0.0025 0.546439 0.42914 1.96335 0.00915015 44 4 1 -1.13615e-09 
1.48314 -0.67349 0.00630767 0.0025 0.546426 0.429125 1.96333 0.00915037 45 4 1 -3.06627e-09 
1.48771 -0.673528 0.00742308 0.0025 0.546411 0.429107 1.9633 0.00915062 46 4 1 -3.84578e-09 
1.49229 -0.673568 0.00863083 0.0025 0.546393 0.429086 1.96327 0.00915092 47 4 1 -2.85178e-09 
1.49687 -0.673611 0.00991881 0.0025 0.546372 0.429062 1.96323 0.00915127 48 4 1 -3.43729e-09 
-0.498559 -0.673659 0.011281 0.0025 0.546348 0.429034 1.96319 0.00915168 49 4 1 -4.56974e-09 
-0.493983 -0.673711 0.012712 0.0025 0.54632 0.429002 1.96315 0.00915215 50 4 1 -4.49926e-09 
-0.489407 -0.673769 0.0142331 0.0025 0.546289 0.428966 1.9631 0.00915267 51 4 1 -3.86918e-09 
-0.484831 -0.673835 0.015913 0.0025 0.546253 0.428926 1.96304 0.00915327 52 4 1 -5.04828e-09 
-0.480254 -0.673909 0.0178385 0.0025 0.546213 0.428882 1.96298 0.00915394 53 4 1 -6.39709e-09 
-0.475677 -0.673992 0.0200334 0.0025 0.546168 0.428831 1.96291 0.00915468 54 4 1 -6.12396e-09 
-0.471099 -0.674085 0.0224118 0.0025 0.546118 0.428775 1.96283 0.00915552 55 4 1 -5.82234e-09 
-0.466521 -0.674188 0.0248475 0.0025 0.546063 0.428713 1.96275 0.00915646 56 4 1 -6.78291e-09 
-0.461943 -0.674303 0.0272707 0.0025 0.546001 0.428645 1.96266 0.00915749 57 4 1 -6.80361e-09 
-0.457364 -0.674429 0.0296759 0.0025 0.545934 0.428571 1.96256 0.00915861 58 4 1 -4.97408e-09 
-0.452784 -0.674566 0.0320185 0.0025 0.545863 0.428491 1.96245 0.00915981 59 4 1 -4.217e-09 
-0.448204 -0.67471 0.0340285 0.0025 0.545787 0.428407 1.96234 0.00916108 60 4 1 -2.97714e-09 
-0.443623 -0.67486 0.0352206 0.0025 0.545709 0.428321 1.96222 0.00916239 61 4 1 4.51652e-10 
-0.439041 -0.67501 0.0350749 0.0025 0.545631 0.428235 1.96211 0.0091637 62 4 1 5.70184e-09 
-0.434459 -0.675155 0.0331303 0.0025 0.545558 0.428153 1.962 0.00916494 63 4 1 1.08161e-08 
-0.429877 -0.675289 0.0293591 0.0025 0.545492 0.428081 1.9619 0.00916603 64 4 1 1.56784e-08 
-0.425293 -0.675402 0.0239274 0.0025 0.545441 0.428024 1.96182 0.0091669 65 4 1 2.28338e-08 
-0.42071 -0.675483 0.0162484 0.0025 0.545407 0.427987 1.96177 0.00916746 66 4 1 2.24969e-08 
-0.416126 -0.675507 0.00653004 0.0025 0.545393 0.42797 1.96175 0.00916771 67 5 1 2.58026e-08 
-0.411542 -0.675538 0.00771508 0.0025 0.545401 0.427983 1.96176 0.00916756 68 4 1 1.43197e-07 
-0.406958 -0.675364 -0.0957817 0.0025 0.545528 0.428127 1.96193 0.00916543 69 4 1 2.6592e-07 
-0.402377 -0.674706 -0.193191 0.0025 0.545869 0.428502 1.96242 0.0091597 70 4 1 2.93465e-07 
-0.397799 -0.673681 -0.279937 0.0025 0.546443 0.429138 1.96324 0.00915009 71 4 1 4.73397e-07 
-0.393226 -0.672015 -0.485578 0.0025 0.547374 0.430174 1.96458 0.00913452 72 4 1 8.72058e-07 
-0.388664 -0.669132 -0.847382 0.0025 0.548921 0.431884 1.96679 0.00910877 73 4 1 1.17329e-06 
-0.384118 -0.664669 -1.19536 0.0025 0.551217 0.434409 1.97008 0.00907084 74 4 1 1.17978e-06 
-0.379593 -0.659018 -1.42806 0.0025 0.554147 0.437638 1.97426 0.00902288 75 4 1 1.10321e-06 
-0.375095 -0.652553 -1.59962 0.0025 0.557543 0.441393 1.97909 0.00896791 76 4 1 1.11838e-06 
-0.370625 -0.645453 -1.75516 0.0025 0.561322 0.445587 1.98444 0.00890755 77 4 1 1.2593e-06 
-0.366187 -0.637653 -1.94827 0.0025 0.565487 0.450225 1.99032 0.00884193 78 4 1 1.44625e-06 
-0.361783 -0.629123 -2.14887 0.0025 0.570071 0.455342 1.99676 0.00877084 79 4 1 1.58189e-06 
-0.357416 -0.619855 -2.33832 0.0025 0.575058 0.460926 2.00373 0.00869477 80 4 1 1.62308e-06 
-0.353088 -0.61002 -2.47771 0.0025 0.580382 0.466905 2.01112 0.00861502 81 4 1 1.5707e-06 
-0.348801 -0.599851 -2.56488 0.0025 0.585932 0.473163 2.0188 0.00853341 82 4 1 1.44354e-06 
-0.344554 -0.589576 -2.5848 0.0025 0.591587 0.479563 2.02657 0.00845184 83 4 1 1.31332e-06 
-0.340349 -0.57941 -2.58201 0.0025 0.597252 0.486001 2.0343 0.00837168 84 4 1 1.21458e-06 
-0.336183 -0.569383 -2.55902 0.0025 0.602874 0.492416 2.04194 0.00829361 85 4 1 1.13556e-06 
-0.332055 -0.559554 -2.53464 0.0025 0.608428 0.498777 2.04944 0.0082179 86 4 1 1.06579e-06 
-0.327965 -0.549954 -2.49874 0.0025 0.613898 0.505065 2.05679 0.00814468 87 4 1 9.92876e-07 
-0.32391 -0.540603 -2.45718 0.0025 0.619271 0.511264 2.06397 0.00807402 88 4 1 9.67247e-07 
-0.31989 -0.531455 -2.44054 0.0025 0.624561 0.517389 2.071 0.00800562 89 4 1 9.27558e-07 
-0.315904 -0.522483 -2.4028 0.0025 0.629774 0.523445 2.0779 0.00793935 90 4 1 8.86941e-07 
-0.311951 -0.513735 -2.3808 0.0025 0.634911 0.529432 2.08466 0.00787512 91 4 1 8.81369e-07 
-0.308029 -0.50512 -2.36655 0.0025 0.639992 0.535374 2.09132 0.00781259 92 4 1 8.78323e-07 
-0.304138 -0.496626 -2.36112 0.0025 0.645038 0.541293 2.0979 0.00775148 93 4 1 8.9147e-07 
-0.300277 -0.488218 -2.36935 0.0025 0.650071 0.547217 2.10443 0.00769146 94 4 1 9.1918e-07 
-0.296447 -0.479818 -2.39191 0.0025 0.655122 0.553179 2.11095 0.00763217 95 4 1 9.45282e-07 
-0.292645 -0.471415 -2.41852 0.0025 0.66021 0.559206 2.11749 0.00757334 96 4 1 1.00668e-06 
-0.288873 -0.46293 -2.48347 0.0025 0.665376 0.565341 2.1241 0.00751455 97 4 1 1.06156e-06 
-0.28513 -0.454301 -2.54271 0.0025 0.670645 0.571618 2.13082 0.00745551 98 4 1 1.03945e-06 
-0.281417 -0.445614 -2.56784 0.0025 0.67599 0.578006 2.13759 0.00739656 99 4 1 1.06407e-06 
-0.277734 -0.436881 -2.63458 0.0025 0.681415 0.584511 2.14444 0.00733768 100 4 1 1.09978e-06 
-0.27408 -0.428019 -2.68438 0.0025 0.686932 0.591146 2.15137 0.00727874 101 4 1 1.04651e-06 
-0.270455 -0.419146 -2.69336 0.0025 0.692497 0.59786 2.15832 0.00722025 102 4 1 1.03106e-06 
-0.266859 -0.410301 -2.72911 0.0025 0.698093 0.604633 2.16528 0.00716237 103 4 1 1.01669e-06 
-0.263292 -0.401443 -2.7353 0.0025 0.703712 0.611456 2.17223 0.00710518 104 4 1 9.7608e-07 
-0.259754 -0.392668 -2.74014 0.0025 0.709329 0.6183 2.17915 0.00704892 105 4 1 9.69511e-07 
-0.256243 -0.38394 -2.75314 0.0025 0.714948 0.625168 2.18604 0.00699352 106 4 1 9.66765e-07 
-0.25276 -0.375252 -2.76875 0.0025 0.720574 0.632066 2.19291 0.00693891 107 4 1 9.36969e-07 
-0.249304 -0.366632 -2.764 0.0025 0.726195 0.638978 2.19973 0.0068852 108 4 1 9.03446e-07 
-0.245875 -0.358119 -2.76034 0.0025 0.731796 0.645889 2.2065 0.00683251 109 4 1 9.24311e-07 
-0.242472 -0.349627 -2.79172 0.0025 0.7374 0.652824 2.21325 0.00678058 110 4 1 8.80752e-07 
-0.239094 -0.3412 -2.76079 0.0025 0.742989 0.65976 2.21994 0.00672957 111 4 1 8.44055e-07 
-0.235742 -0.33291 -2.76591 0.0025 0.748545 0.666679 2.22657 0.00667962 112 4 1 8.78311e-07 
-0.232415 -0.324634 -2.78769 0.0025 0.754106 0.673623 2.23317 0.00663037 113 4 1 8.7051e-07 
-0.229112 -0.316386 -2.79614 0.0025 0.759673 0.680594 2.23975 0.00658178 114 4 1 8.24819e-07 
-0.225833 -0.308233 -2.77978 0.0025 0.765221 0.687562 2.24627 0.00653406 115 4 1 7.9508e-07 
-0.222578 -0.300182 -2.77215 0.0025 0.770738 0.694515 2.25274 0.00648728 116 4 1 8.44424e-07 
-0.219345 -0.292141 -2.8225 0.0025 0.776271 0.701504 2.25919 0.00644105 117 4 1 8.21168e-07 
-0.216136 -0.284112 -2.80221 0.0025 0.781809 0.708517 2.26563 0.00639542 118 4 1 7.21948e-07 
-0.21295 -0.276269 -2.7558 0.0025 0.787288 0.71548 2.27196 0.00635092 119 4 1 7.77494e-07 
-0.209785 -0.268477 -2.81138 0.0025 0.79276 0.722454 2.27826 0.00630708 120 4 1 8.2729e-07 
-0.206643 -0.260607 -2.83461 0.0025 0.798272 0.729493 2.28459 0.00626353 121 4 1 7.45805e-07 
-0.203522 -0.25284 -2.80314 0.0025 0.803766 0.73653 2.29087 0.00622071 122 4 1 6.94485e-07 
-0.200422 -0.24521 -2.78163 0.0025 0.809211 0.743527 2.29706 0.00617886 123 4 1 7.42948e-07 
-0.197343 -0.237604 -2.82275 0.0025 0.814656 0.750541 2.30323 0.00613756 124 4 1 7.69672e-07 
-0.194284 -0.229969 -2.84283 0.0025 0.820129 0.757607 2.30941 0.00609661 125 4 1 7.02408e-07 
-0.191246 -0.22242 -2.81297 0.0025 0.825581 0.764666 2.31553 0.00605634 126 4 1 6.44568e-07 
-0.188228 -0.215004 -2.78074 0.0025 0.830978 0.771675 2.32158 0.00601701 127 4 1 6.89594e-07 
-0.185229 -0.20768 -2.81845 0.0025 0.836366 0.778692 2.32758 0.00597824 128 4 1 7.5515e-07 
-0.18225 -0.200244 -2.87159 0.0025 0.841805 0.785788 2.33363 0.00593962 129 4 1 6.93561e-07 
-0.179289 -0.192852 -2.84112 0.0025 0.847246 0.792904 2.33965 0.00590148 130 4 1 5.87037e-07 
-0.176348 -0.185621 -2.77886 0.0025 0.852611 0.799944 2.34556 0.00586434 131 4 1 6.19976e-07 
-0.173425 -0.178528 -2.80632 0.0025 0.857942 0.80696 2.35142 0.0058279 132 4 1 7.42711e-07 
-0.17052 -0.171299 -2.90176 0.0025 0.863343 0.814079 2.35733 0.00579144 133 4 1 6.94211e-07 
-0.167634 -0.164027 -2.87474 0.0025 0.868775 0.821252 2.36325 0.00575523 134 4 1 5.09463e-07 
-0.164765 -0.157021 -2.7545 0.0025 0.874095 0.828301 2.36903 0.0057202 135 4 1 5.2188e-07 
-0.161913 -0.150212 -2.7641 0.0025 0.879329 0.835261 2.37469 0.00568615 136 4 1 7.33396e-07 
-0.159079 -0.143238 -2.9178 0.0025 0.884662 0.842364 2.38044 0.00565188 137 4 1 7.45793e-07 
-0.156261 -0.136066 -2.93851 0.0025 0.8901 0.849611 2.38628 0.00561735 138 4 1 4.89251e-07 
-0.153461 -0.129152 -2.77394 0.0025 0.895429 0.856738 2.39199 0.00558391 139 4 1 4.17106e-07 
-0.150677 -0.122562 -2.72595 0.0025 0.900606 0.86369 2.3975 0.00555182 140 4 1 6.62094e-07 
-0.147909 -0.115876 -2.89385 0.0025 0.905852 0.870746 2.40308 0.00551967 141 4 1 7.84186e-07 
-0.145158 -0.108864 -2.99768 0.0025 0.911264 0.87803 2.40882 0.00548688 142 4 1 5.1564e-07 
-0.142422 -0.101998 -2.82082 0.0025 0.916614 0.885244 2.41447 0.00545486 143 4 1 3.02586e-07 
-0.139703 -0.095598 -2.67097 0.0025 0.921731 0.892178 2.41984 0.00542458 144 4 1 4.93263e-07 
-0.136998 -0.0892968 -2.7752 0.0025 0.926805 0.899073 2.42516 0.00539488 145 4 1 7.75475e-07 
-0.134308 -0.0826275 -2.99495 0.0025 0.932083 0.906247 2.43068 0.00536433 146 4 1 6.6155e-07 
-0.131633 -0.0758259 -2.93346 0.0025 0.937457 0.913557 2.43628 0.00533358 147 4 1 3.4503e-07 
-0.128974 -0.0693569 -2.74045 0.0025 0.94265 0.920648 2.44166 0.00530419 148 4 1 3.17074e-07 
-0.126329 -0.0632631 -2.67769 0.0025 0.94766 0.927515 2.44684 0.00527615 149 4 1 5.83481e-07 
-0.123698 -0.0570436 -2.86504 0.0025 0.952739 0.934489 2.45207 0.00524803 150 4 1 7.43086e-07 
-0.121081 -0.0504977 -3.0107 0.0025 0.958019 0.94174 2.45751 0.0052191 151 4 1 4.89959e-07 
-0.118479 -0.0439575 -2.85133 0.0025 0.963266 0.948952 2.46289 0.00519068 152 4 1 6.82912e-08 
-0.11589 -0.0380879 -2.45917 0.0025 0.968141 0.955686 2.46786 0.00516453 153 4 1 2.76689e-07 
-0.113314 -0.0326182 -2.62109 0.0025 0.972863 0.962248 2.47265 0.00513947 154 4 1 1.05291e-06 
-0.110751 -0.0262315 -3.29658 0.0025 0.978077 0.969473 2.47797 0.00511207 155 4 1 6.39946e-07 
-0.108202 -0.0193133 -2.89678 0.0025 0.983409 0.976817 2.48339 0.00508435 156 4 1 -9.11018e-07 
-0.105667 -0.0145858 -1.46266 0.0025 0.987593 0.982658 2.48755 0.00506281 157 4 1 1.38602e-07 
-0.103139 -0.0107418 -2.53153 0.0025 0.991574 0.988319 2.49152 0.00504249 158 4 1 2.74844e-06 
-0.100624 -0.00296136 -4.69103 0.0025 0.997517 0.996568 2.49758 0.00501245 159 4 1 3.55822e-07 
-0.0981268 0.005219 -2.55562 0.0025 1.00337 1.00459 2.50348 0.00498323 160 4 1 -3.22013e-06 
-0.0956408 0.00716732 0.443451 0.0025 1.00591 1.00825 2.50588 0.00497062 161 4 1 -4.59947e-08 
-0.0931562 0.00834991 -2.10559 0.0025 1.00807 1.01145 2.50799 0.00495997 162 4 1 3.42063e-06 
-0.0906808 0.015547 -4.31622 0.0025 1.01315 1.01851 2.51317 0.00493508 163 4 1 2.52674e-07 
-0.0882211 0.0225192 -2.26413 0.0025 1.01829 1.0256 2.5183 0.00491018 164 4 1 -2.70149e-06 
-0.0857706 0.0245722 -0.0627575 0.0025 1.02046 1.02867 2.52038 0.00489977 165 4 1 -1.66184e-06 
-0.0833213 0.0243605 0.24849 0.0025 1.02055 1.02887 2.52045 0.00489932 166 3 1 -3.69531e-07 
-0.0808712 0.023831 0.277197 0.0025 1.0201 1.02824 2.52 0.0049015 167 4 1 -2.00031e-07 
-0.0784198 0.0230968 0.384519 0.0025 1.01939 1.02724 2.5193 0.00490491 168 4 1 -2.47128e-07 
-0.0759663 0.0220174 0.56995 0.0025 1.01837 1.02581 2.5183 0.00490978 169 4 1 -2.51335e-07 
-0.07351 0.0205411 0.764569 0.0025 1.01705 1.02394 2.51698 0.0049162 170 4 1 -1.88122e-07 
-0.0710501 0.0187256 0.917353 0.0025 1.01546 1.02171 2.51541 0.00492388 171 4 1 -9.25073e-08 
-0.0685861 0.0166854 1.00859 0.0025 1.01371 1.01925 2.51367 0.00493237 172 4 1 3.68629e-09 
-0.0661178 0.0145458 1.03862 0.0025 1.0119 1.01671 2.51187 0.00494119 173 4 1 8.32615e-08 
-0.0636449 0.0124187 1.01695 0.0025 1.01012 1.01421 2.5101 0.0049499 174 4 1 1.40169e-07 
-0.0611678 0.0103923 0.95618 0.0025 1.00844 1.01184 2.50842 0.00495816 175 4 1 1.74736e-07 
-0.0586868 0.00852944 0.868994 0.0025 1.0069 1.00969 2.50689 0.00496573 176 4 1 1.90303e-07 
-0.0562021 0.00686884 0.766691 0.0025 1.00554 1.00777 2.50553 0.00497245 177 4 1 1.91228e-07 
-0.0537143 0.00542887 0.658587 0.0025 1.00437 1.00613 2.50436 0.00497826 178 4 1 1.81798e-07 
-0.0512239 0.00421158 0.551864 0.0025 1.00338 1.00474 2.50337 0.00498317 179 4 1 1.65723e-07 
-0.0487312 0.00320695 0.451673 0.0025 1.00257 1.0036 2.50256 0.0049872 180 4 1 1.45976e-07 
-0.0462367 0.00239674 0.361363 0.0025 1.00191 1.00269 2.50191 0.00499045 181 4 1 1.24821e-07 
-0.0437407 0.00175782 0.282756 0.0025 1.0014 1.00197 2.5014 0.00499301 182 4 1 1.03896e-07 
-0.0412436 0.00126497 0.216454 0.0025 1.00101 1.00141 2.501 0.00499498 183 4 1 8.43199e-08 
-0.0387457 0.000892991 0.162137 0.0025 1.00071 1.001 2.50071 0.00499646 184 4 1 6.6789e-08 
-0.0362472 0.000618256 0.118849 0.0025 1.00049 1.00069 2.50049 0.00499755 185 4 1 5.16605e-08 
-0.0337482 0.000419683 0.0852512 0.0025 1.00033 1.00047 2.50033 0.00499834 186 4 1 3.90315e-08 
-0.0312488 0.000279232 0.0598373 0.0025 1.00022 1.00031 2.50022 0.0049989 187 4 1 2.8809e-08 
-0.0287493 0.000182025 0.0410911 0.0025 1.00014 1.0002 2.50014 0.00499928 188 4 1 2.07733e-08 
-0.0262496 0.000116206 0.0276017 0.0025 1.00009 1.00013 2.50009 0.00499954 189 4 1 1.46325e-08 
-0.0237497 7.26157e-05 0.0181307 0.0025 1.00006 1.00008 2.50006 0.00499971 190 4 1 1.00673e-08 
-0.0212498 4.43882e-05 0.0116417 0.0025 1.00003 1.00005 2.50003 0.00499983 191 4 1 6.76402e-09 
-0.0187499 2.65228e-05 0.00730345 0.0025 1.00002 1.00003 2.50002 0.0049999 192 4 1 4.43691e-09 
-0.01625 1.54775e-05 0.00447375 0.0025 1.00001 1.00002 2.50001 0.00499994 193 4 1 2.84062e-09 
-0.01375 8.81058e-06 0.00267323 0.0025 1.00001 1.00001 2.50001 0.00499997 194 4 1 1.7747e-09 
-0.01125 4.8838e-06 0.00155549 0.0025 1 1.00001 2.5 0.00499998 195 4 1 1.08252e-09 
-0.00874999 2.62563e-06 0.00087743 0.0025 1 1 2.5 0.00499999 196 4 1 6.46865e-10 
-0.00625 1.35116e-06 0.000472596 0.0025 1 1 2.5 0.00499999 197 4 1 3.83899e-10 
-0.00375 6.28592e-07 0.000228436 0.0025 1 1 2.5 0.005 198 4 1 2.37051e-10 
-0.00125 1.81801e-07 6.75914e-05 0.0025 1 1 2.5 0.005 199 4 1 1.71774e-10 
0.00125 -1.81801e-07 -6.75914e-05 0.0025 1 1 2.5 0.005 200 4 1 1.71774e-10 
0.00375 -6.28592e-07 -0.000228436 0.0025 1 1 2.5 0.005 201 4 1 2.37051e-10 
0.00625 -1.35116e-06 -0.000472596 0.0025 1 1 2.5 0.00499999 202 4 1 3.83899e-10 
0.00874999 -2.62563e-06 -0.00087743 0.0025 1 1 2.5 0.00499999 203 4 1 6.46865e-10 
0.01125 -4.8838e-06 -0.00155549 0.0025 1 1.00001 2.5 0.00499998 204 4 1 1.08252e-09 
0.01375 -8.81058e-06 -0.00267323 0.0025 1.00001 1.00001 2.50001 0.00499997 205 4 1 1.7747e-09 
0.01625 -1.54775e-05 -0.00447375 0.0025 1.00001 1.00002 2.50001 0.00499994 206 4 1 2.84062e-09 
0.0187499 -2.65228e-05 -0.00730345 0.0025 1.00002 1.00003 2.50002 0.0049999 207 4 1 4.43691e-09 
0.0212498 -4.43882e-05 -0.0116417 0.0025 1.00003 1.00005 2.50003 0.00499983 208 4 1 6.76402e-09 
0.0237497 -7.26157e-05 -0.0181307 0.0025 1.00006 1.00008 2.50006 0.00499971 209 4 1 1.00673e-08 
0.0262496 -0.000116206 -0.0276017 0.0025 1.00009 1.00013 2.50009 0.00499954 210 4 1 1.46325e-08 
0.0287493 -0.000182025 -0.0410911 0.0025 1.00014 1.0002 2.50014 0.00499928 211 4 1 2.07733e-08 
0.0312488 -0.000279232 -0.0598373 0.0025 1.00022 1.00031 2.50022 0.0049989 212 4 1 2.8809e-08 
0.0337482 -0.000419683 -0.0852512 0.0025 1.00033 1.00047 2.50033 0.00499834 213 4 1 3.90315e-08 
