# Time [s]: 0.340644
# Columns: pos [m], vel [m/s], acc [m/s^2], mass [kg], dens [kg/m^3], pres [Pa], ene [J/kg], sml [m], id, neighbor, alpha, gradh, ...additional?
1.27294 -0.673087 0.000261377 0.0025 0.511053 0.43273 2.15251 0.00978372 0 4 1 -0.000134225 
1.27772 -0.673088 0.000271152 0.0025 0.53691 0.426192 1.95004 0.00931254 1 4 1 0.000179252 
1.28226 -0.673089 0.000281442 0.0025 0.54824 0.430862 1.9685 0.00912009 2 3 1 -1.90586e-05 
1.28684 -0.67309 0.00029303 0.0025 0.545975 0.429197 1.96465 0.00915793 3 5 1 3.48574e-06 
1.29142 -0.673092 0.000306403 0.0025 0.546373 0.429352 1.96458 0.00915127 4 4 1 -1.38708e-07 
1.29599 -0.673093 0.000322316 0.0025 0.546383 0.429321 1.96435 0.00915109 5 4 1 1.43696e-07 
1.30057 -0.673094 0.000340992 0.0025 0.546406 0.42932 1.96429 0.00915071 6 4 1 -3.55128e-09 
1.30514 -0.673096 0.000361772 0.0025 0.546418 0.429316 1.96423 0.0091505 7 4 1 8.19032e-09 
1.30972 -0.673097 0.000383526 0.0025 0.546432 0.429315 1.96417 0.00915027 8 4 1 4.71803e-09 
1.31429 -0.673099 0.000405622 0.0025 0.546444 0.429314 1.96413 0.00915007 9 4 1 5.42935e-09 
1.31887 -0.673101 0.000428635 0.0025 0.546455 0.429313 1.96408 0.00914989 10 4 1 -2.28872e-09 
1.32344 -0.673103 0.000454043 0.0025 0.546465 0.429312 1.96404 0.00914972 11 4 1 4.67345e-09 
1.32802 -0.673105 0.000482928 0.0025 0.546474 0.429311 1.964 0.00914956 12 4 1 2.78769e-09 
1.33259 -0.673108 0.000514737 0.0025 0.546483 0.429309 1.96397 0.00914942 13 4 1 3.50227e-09 
1.33717 -0.67311 0.000547409 0.0025 0.54649 0.429308 1.96393 0.00914931 14 4 1 2.0493e-09 
1.34174 -0.673113 0.00057921 0.0025 0.546496 0.429306 1.96391 0.0091492 15 4 1 -1.64902e-09 
1.34632 -0.673116 0.000611002 0.0025 0.546502 0.429305 1.96387 0.00914909 16 4 1 4.83633e-09 
1.35089 -0.673119 0.000646792 0.0025 0.546507 0.429303 1.96385 0.00914901 17 4 1 1.40784e-09 
1.35547 -0.673122 0.00069143 0.0025 0.546512 0.429302 1.96383 0.00914893 18 4 1 -1.28541e-09 
1.36004 -0.673126 0.000746778 0.0025 0.546516 0.4293 1.9638 0.00914886 19 4 1 2.58766e-09 
1.36461 -0.67313 0.000809502 0.0025 0.54652 0.429298 1.96378 0.0091488 20 4 1 1.04524e-09 
1.36919 -0.673134 0.000872854 0.0025 0.546523 0.429295 1.96376 0.00914875 21 4 1 1.06986e-09 
1.37376 -0.673138 0.000931674 0.0025 0.546525 0.429293 1.96374 0.00914871 22 4 1 9.48276e-10 
1.37834 -0.673142 0.000986912 0.0025 0.546527 0.429291 1.96372 0.00914868 23 4 1 -2.71488e-10 
1.38291 -0.673148 0.00104594 0.0025 0.546528 0.429288 1.9637 0.00914866 24 4 1 1.37115e-09 
1.38749 -0.673153 0.00111813 0.0025 0.54653 0.429285 1.96369 0.00914864 25 4 1 6.02884e-10 
1.39206 -0.673159 0.00120894 0.0025 0.54653 0.429282 1.96367 0.00914863 26 4 1 -5.33709e-10 
1.39664 -0.673165 0.00131672 0.0025 0.546531 0.429279 1.96365 0.00914862 27 3 1 1.01399e-09 
1.40121 -0.673172 0.00143442 0.0025 0.54653 0.429275 1.96364 0.00914862 28 4 1 6.33232e-10 
1.40578 -0.673179 0.00155443 0.0025 0.54653 0.429271 1.96362 0.00914864 29 4 1 -1.01064e-09 
1.41036 -0.673187 0.00167295 0.0025 0.546529 0.429267 1.96361 0.00914865 30 4 1 2.54197e-10 
1.41493 -0.673195 0.00179169 0.0025 0.546527 0.429263 1.96359 0.00914868 31 4 1 1.69957e-09 
1.41951 -0.673204 0.00191676 0.0025 0.546525 0.429258 1.96358 0.00914871 32 4 1 -1.15665e-09 
1.42408 -0.673214 0.00205581 0.0025 0.546522 0.429252 1.96356 0.00914876 33 4 1 -1.17566e-09 
1.42866 -0.673225 0.00221317 0.0025 0.54652 0.429247 1.96355 0.0091488 34 4 1 1.71726e-09 
1.43323 -0.673236 0.00238275 0.0025 0.546516 0.429241 1.96353 0.00914886 35 4 1 -6.36639e-10 
1.4378 -0.673249 0.00254296 0.0025 0.546512 0.429234 1.96352 0.00914893 36 4 1 -1.27574e-09 
1.44238 -0.673263 0.00266255 0.0025 0.546508 0.429227 1.9635 0.009149 37 4 1 1.12968e-09 
1.44695 -0.673279 0.00272346 0.0025 0.546503 0.42922 1.96349 0.00914908 38 4 1 -7.6332e-11 
1.45153 -0.673297 0.00275079 0.0025 0.546498 0.429213 1.96347 0.00914917 39 4 1 -8.55995e-10 
1.4561 -0.673318 0.00282309 0.0025 0.546492 0.429205 1.96345 0.00914926 40 4 1 4.36851e-10 
1.46068 -0.673341 0.00304205 0.0025 0.546486 0.429197 1.96344 0.00914936 41 4 1 -2.19824e-10 
1.46525 -0.673367 0.00347542 0.0025 0.54648 0.429188 1.96342 0.00914947 42 4 1 -1.82565e-09 
1.46983 -0.673394 0.00412021 0.0025 0.546472 0.429178 1.9634 0.0091496 43 4 1 -1.74444e-09 
1.4744 -0.673423 0.00491914 0.0025 0.546462 0.429166 1.96338 0.00914976 44 4 1 -1.19281e-09 
1.47898 -0.673452 0.00580944 0.0025 0.546451 0.429152 1.96336 0.00914995 45 4 1 -2.81444e-09 
1.48355 -0.673484 0.00675354 0.0025 0.546437 0.429136 1.96334 0.00915018 46 4 1 -3.35593e-09 
1.48813 -0.673517 0.00773408 0.0025 0.546421 0.429117 1.96331 0.00915045 47 4 1 -2.18739e-09 
1.4927 -0.673554 0.00874222 0.0025 0.546403 0.429095 1.96327 0.00915076 48 4 1 -2.62958e-09 
1.49728 -0.673594 0.0097857 0.0025 0.546382 0.429071 1.96324 0.00915111 49 4 1 -3.67726e-09 
-0.498147 -0.673638 0.0109062 0.0025 0.546358 0.429044 1.9632 0.00915151 50 4 1 -3.63545e-09 
-0.493571 -0.673688 0.0121744 0.0025 0.546331 0.429013 1.96316 0.00915196 51 4 1 -3.12992e-09 
-0.488995 -0.673744 0.0136488 0.0025 0.546301 0.428979 1.96311 0.00915247 52 4 1 -4.39858e-09 
-0.484419 -0.673807 0.0153288 0.0025 0.546267 0.42894 1.96306 0.00915304 53 4 1 -5.67701e-09 
-0.479842 -0.673877 0.017166 0.0025 0.546228 0.428897 1.963 0.00915368 54 4 1 -5.25085e-09 
-0.475265 -0.673957 0.0191326 0.0025 0.546185 0.428849 1.96293 0.0091544 55 4 1 -4.98554e-09 
-0.470688 -0.674046 0.0212685 0.0025 0.546137 0.428795 1.96286 0.0091552 56 4 1 -6.37346e-09 
-0.46611 -0.674146 0.0236401 0.0025 0.546084 0.428736 1.96278 0.0091561 57 4 1 -7.1323e-09 
-0.461532 -0.674256 0.0262298 0.0025 0.546026 0.428671 1.96269 0.00915708 58 4 1 -6.03898e-09 
-0.456953 -0.674377 0.0288505 0.0025 0.545961 0.428599 1.96259 0.00915816 59 4 1 -5.81692e-09 
-0.452373 -0.674508 0.0311968 0.0025 0.545891 0.428522 1.96249 0.00915933 60 4 1 -5.13125e-09 
-0.447793 -0.674648 0.0329689 0.0025 0.545817 0.42844 1.96238 0.00916057 61 4 1 -2.68019e-09 
-0.443213 -0.674795 0.0339848 0.0025 0.545741 0.428355 1.96226 0.00916185 62 4 1 8.10131e-10 
-0.438632 -0.674946 0.0342103 0.0025 0.545665 0.428271 1.96215 0.00916313 63 4 1 3.62993e-09 
-0.43405 -0.675094 0.033512 0.0025 0.545591 0.42819 1.96204 0.00916437 64 4 1 6.96885e-09 
-0.429467 -0.675229 0.0313033 0.0025 0.545524 0.428115 1.96194 0.00916551 65 4 1 1.24614e-08 
-0.424884 -0.675345 0.0264505 0.0025 0.545466 0.428051 1.96186 0.00916648 66 4 1 2.0508e-08 
-0.420301 -0.675436 0.0181539 0.0025 0.545425 0.428006 1.96179 0.00916716 67 4 1 2.88707e-08 
-0.415717 -0.675488 0.0062681 0.0025 0.545408 0.427986 1.96177 0.00916745 68 4 1 1.71488e-08 
-0.411133 -0.675507 0.0130463 0.0025 0.545406 0.427985 1.96176 0.00916748 69 5 1 7.48865e-08 
-0.40655 -0.675481 -0.0420975 0.0025 0.545467 0.428058 1.96184 0.00916645 70 4 1 2.23689e-07 
-0.401967 -0.675007 -0.157362 0.0025 0.545711 0.428327 1.96219 0.00916237 71 4 1 2.91644e-07 
-0.397387 -0.674116 -0.24404 0.0025 0.546187 0.428852 1.96287 0.00915438 72 4 1 3.65314e-07 
-0.392812 -0.672756 -0.37819 0.0025 0.546945 0.429695 1.96396 0.00914168 73 4 1 6.68626e-07 
-0.388246 -0.670508 -0.672142 0.0025 0.54819 0.431076 1.96574 0.00912092 74 4 1 1.05171e-06 
-0.383692 -0.666775 -1.04411 0.0025 0.550141 0.433224 1.96854 0.00908858 75 4 1 1.18595e-06 
-0.379157 -0.661646 -1.32362 0.0025 0.552787 0.436137 1.97232 0.00904507 76 4 1 1.12117e-06 
-0.374646 -0.655539 -1.51833 0.0025 0.555966 0.439646 1.97685 0.00899336 77 4 1 1.07079e-06 
-0.370163 -0.648775 -1.6626 0.0025 0.559542 0.443608 1.98192 0.00893589 78 4 1 1.14159e-06 
-0.36571 -0.641387 -1.83111 0.0025 0.563476 0.447982 1.98748 0.0088735 79 4 1 1.30761e-06 
-0.36129 -0.633331 -2.0179 0.0025 0.567795 0.452798 1.99356 0.008806 80 4 1 1.47015e-06 
-0.356904 -0.624566 -2.21198 0.0025 0.572512 0.458072 2.00017 0.00873344 81 4 1 1.56036e-06 
-0.352556 -0.615161 -2.37134 0.0025 0.577593 0.463769 2.00725 0.00865662 82 4 1 1.55324e-06 
-0.348247 -0.605324 -2.48376 0.0025 0.582949 0.469795 2.01468 0.00857708 83 4 1 1.46404e-06 
-0.343979 -0.595232 -2.53418 0.0025 0.588467 0.476027 2.02228 0.00849665 84 4 1 1.33652e-06 
-0.339751 -0.585164 -2.54281 0.0025 0.594039 0.482346 2.02992 0.00841696 85 4 1 1.22593e-06 
-0.335562 -0.575216 -2.52925 0.0025 0.599595 0.48867 2.03749 0.00833897 86 4 1 1.13992e-06 
-0.331411 -0.56544 -2.50644 0.0025 0.605096 0.494958 2.04494 0.00826315 87 4 1 1.07503e-06 
-0.327298 -0.555861 -2.48122 0.0025 0.610527 0.501186 2.05226 0.00818965 88 4 1 1.00052e-06 
-0.323222 -0.546505 -2.43887 0.0025 0.615869 0.507336 2.05943 0.00811861 89 4 1 9.50329e-07 
-0.31918 -0.537401 -2.41153 0.0025 0.621122 0.513404 2.06643 0.00804995 90 4 1 9.29329e-07 
-0.315172 -0.528448 -2.38974 0.0025 0.626301 0.519407 2.07331 0.00798339 91 4 1 8.86043e-07 
-0.311196 -0.519709 -2.35771 0.0025 0.631406 0.525344 2.08005 0.00791883 92 4 1 8.55013e-07 
-0.307253 -0.511142 -2.33701 0.0025 0.636442 0.53122 2.08667 0.00785618 93 4 1 8.5314e-07 
-0.30334 -0.5027 -2.32791 0.0025 0.64143 0.537058 2.09319 0.00779508 94 4 1 8.48286e-07 
-0.299457 -0.494367 -2.32001 0.0025 0.646387 0.542879 2.09965 0.0077353 95 4 1 8.69632e-07 
-0.295604 -0.486094 -2.33841 0.0025 0.65134 0.548712 2.10607 0.00767649 96 4 1 8.97118e-07 
-0.291781 -0.477824 -2.35635 0.0025 0.656315 0.55459 2.11249 0.00761829 97 4 1 9.22828e-07 
-0.287986 -0.469553 -2.39025 0.0025 0.661333 0.560537 2.11893 0.00756049 98 4 1 9.91068e-07 
-0.28422 -0.4612 -2.45765 0.0025 0.666435 0.566601 2.12546 0.00750261 99 4 1 1.02439e-06 
-0.280483 -0.452692 -2.5048 0.0025 0.671634 0.572797 2.13207 0.00744454 100 4 1 1.00217e-06 
-0.276776 -0.444159 -2.53334 0.0025 0.6769 0.579096 2.13874 0.00738661 101 4 1 1.0289e-06 
-0.273097 -0.435559 -2.59363 0.0025 0.682243 0.585505 2.14548 0.00732877 102 4 1 1.05133e-06 
-0.269447 -0.426831 -2.63652 0.0025 0.687667 0.59203 2.15229 0.00727096 103 4 1 1.0082e-06 
-0.265826 -0.41813 -2.64914 0.0025 0.693135 0.598631 2.15912 0.0072136 104 4 1 9.95434e-07 
-0.262233 -0.409423 -2.68088 0.0025 0.698634 0.605289 2.16595 0.00715683 105 4 1 9.82123e-07 
-0.258669 -0.400744 -2.69048 0.0025 0.704155 0.611996 2.17278 0.00710071 106 4 1 9.428e-07 
-0.255132 -0.392128 -2.69273 0.0025 0.709676 0.618724 2.17958 0.00704547 107 4 1 9.3002e-07 
-0.251623 -0.383569 -2.7028 0.0025 0.715195 0.62547 2.18634 0.0069911 108 4 1 9.33591e-07 
-0.248141 -0.375046 -2.72109 0.0025 0.72072 0.632245 2.19308 0.0069375 109 4 1 8.99704e-07 
-0.244685 -0.366566 -2.71014 0.0025 0.726238 0.639031 2.19978 0.0068848 110 4 1 8.67553e-07 
-0.241256 -0.358218 -2.70958 0.0025 0.731733 0.645812 2.20643 0.00683309 111 4 1 8.91928e-07 
-0.237852 -0.349866 -2.73849 0.0025 0.737234 0.652618 2.21305 0.00678211 112 4 1 8.58603e-07 
-0.234474 -0.341596 -2.71808 0.0025 0.742725 0.659432 2.21962 0.00673196 113 4 1 8.1236e-07 
-0.23112 -0.333436 -2.71047 0.0025 0.748183 0.666227 2.22613 0.00668286 114 4 1 8.397e-07 
-0.227791 -0.325321 -2.73514 0.0025 0.753639 0.673039 2.23261 0.00663448 115 4 1 8.48779e-07 
-0.224486 -0.317235 -2.74858 0.0025 0.759108 0.679885 2.23908 0.00658668 116 4 1 8.04339e-07 
-0.221204 -0.309194 -2.7348 0.0025 0.764563 0.686733 2.2455 0.00653969 117 4 1 7.61435e-07 
-0.217946 -0.301287 -2.71686 0.0025 0.769982 0.69356 2.25185 0.00649365 118 4 1 8.01524e-07 
-0.21471 -0.293412 -2.76054 0.0025 0.775406 0.70041 2.25818 0.00644823 119 4 1 8.13534e-07 
-0.211497 -0.285502 -2.76806 0.0025 0.78085 0.707301 2.26451 0.00640328 120 4 1 7.09756e-07 
-0.208307 -0.277754 -2.70862 0.0025 0.786245 0.714152 2.27076 0.00635934 121 4 1 7.18068e-07 
-0.205138 -0.270107 -2.73841 0.0025 0.791607 0.720982 2.27694 0.00631627 122 4 1 7.96741e-07 
-0.201991 -0.262414 -2.78205 0.0025 0.797006 0.727875 2.28314 0.00627348 123 4 1 7.54817e-07 
-0.198865 -0.254736 -2.76931 0.0025 0.802415 0.734797 2.28932 0.00623119 124 4 1 6.77356e-07 
-0.195759 -0.247201 -2.73481 0.0025 0.807779 0.741683 2.29543 0.00618981 125 4 1 6.93721e-07 
-0.192675 -0.239757 -2.75603 0.0025 0.813121 0.748561 2.30149 0.00614915 126 4 1 7.33686e-07 
-0.18961 -0.232276 -2.7817 0.0025 0.818482 0.755479 2.30755 0.00610887 127 4 1 7.16527e-07 
-0.186566 -0.224822 -2.78906 0.0025 0.823852 0.762425 2.31359 0.00606905 128 4 1 6.38949e-07 
-0.183541 -0.217468 -2.73723 0.0025 0.829178 0.769334 2.31956 0.00603007 129 4 1 6.23397e-07 
-0.180536 -0.21027 -2.74002 0.0025 0.834458 0.776204 2.32546 0.00599191 130 4 1 7.01265e-07 
-0.177549 -0.203025 -2.79226 0.0025 0.839765 0.783125 2.33136 0.00595405 131 4 1 7.21551e-07 
-0.174581 -0.195742 -2.8232 0.0025 0.845117 0.790118 2.3373 0.00591634 132 4 1 6.24366e-07 
-0.171633 -0.188536 -2.76552 0.0025 0.850438 0.797089 2.34317 0.00587932 133 4 1 5.47164e-07 
-0.168702 -0.181528 -2.71958 0.0025 0.855678 0.803976 2.34893 0.00584332 134 4 1 6.44104e-07 
-0.165789 -0.174543 -2.79383 0.0025 0.860925 0.810891 2.35468 0.0058077 135 4 1 7.30283e-07 
-0.162894 -0.167412 -2.85934 0.0025 0.866254 0.817922 2.3605 0.00577198 136 4 1 6.08397e-07 
-0.160017 -0.160341 -2.78787 0.0025 0.871565 0.824945 2.36628 0.00573681 137 4 1 4.59518e-07 
-0.157157 -0.15355 -2.68571 0.0025 0.876746 0.831822 2.3719 0.00570291 138 4 1 5.55132e-07 
-0.154314 -0.146872 -2.75237 0.0025 0.881893 0.838674 2.37745 0.00566962 139 4 1 7.46592e-07 
-0.151488 -0.139948 -2.89392 0.0025 0.88717 0.845706 2.38314 0.0056359 140 4 1 6.67113e-07 
-0.148678 -0.132946 -2.8556 0.0025 0.892504 0.852824 2.38886 0.00560222 141 4 1 4.23989e-07 
-0.145886 -0.126238 -2.69868 0.0025 0.897696 0.859776 2.39441 0.00556982 142 4 1 4.26337e-07 
-0.143108 -0.119805 -2.69006 0.0025 0.902766 0.866593 2.3998 0.00553853 143 4 1 6.907e-07 
-0.140347 -0.113182 -2.88358 0.0025 0.907949 0.873568 2.4053 0.00550692 144 4 1 7.29393e-07 
-0.137602 -0.106299 -2.91945 0.0025 0.913271 0.880736 2.41094 0.00547482 145 4 1 4.51666e-07 
-0.134872 -0.0996189 -2.75476 0.0025 0.918494 0.887788 2.41644 0.00544369 146 4 1 2.90509e-07 
-0.132158 -0.0933955 -2.61017 0.0025 0.923496 0.894571 2.42169 0.00541421 147 4 1 5.14648e-07 
-0.129458 -0.0871834 -2.76428 0.0025 0.928491 0.901364 2.42692 0.00538508 148 4 1 7.51781e-07 
-0.126773 -0.0806264 -2.92968 0.0025 0.933691 0.908434 2.43235 0.00535509 149 4 1 6.15234e-07 
-0.124103 -0.0739516 -2.88513 0.0025 0.938962 0.915611 2.43784 0.00532503 150 4 1 3.26385e-07 
-0.121448 -0.0676435 -2.6796 0.0025 0.944054 0.922567 2.44312 0.00529631 151 4 1 3.07408e-07 
-0.118806 -0.0616503 -2.64247 0.0025 0.948969 0.929308 2.44819 0.00526888 152 4 1 5.47571e-07 
-0.116179 -0.055567 -2.7852 0.0025 0.953943 0.936142 2.45331 0.0052414 153 4 1 7.14963e-07 
-0.113565 -0.0491742 -2.9625 0.0025 0.959113 0.943247 2.45863 0.00521315 154 4 1 5.14188e-07 
-0.110965 -0.042725 -2.83111 0.0025 0.964287 0.950362 2.46393 0.00518518 155 4 1 8.12859e-08 
-0.10838 -0.0368899 -2.44807 0.0025 0.96911 0.95702 2.46885 0.00515938 156 4 1 1.35053e-07 
-0.105806 -0.0316361 -2.43349 0.0025 0.973676 0.96337 2.47347 0.00513518 157 4 1 1.00088e-06 
-0.103244 -0.0255876 -3.23955 0.0025 0.978714 0.970366 2.4786 0.00510874 158 4 1 9.00472e-07 
-0.100697 -0.0185085 -3.08527 0.0025 0.984103 0.977786 2.48409 0.00508077 159 4 1 -9.02809e-07 
-0.0981637 -0.013543 -1.44131 0.0025 0.988353 0.983698 2.48833 0.00505892 160 4 1 -3.59775e-07 
-0.0956383 -0.0102612 -2.03373 0.0025 0.991971 0.988866 2.49191 0.00504047 161 4 1 2.67336e-06 
-0.0931232 -0.00318844 -4.61962 0.0025 0.997536 0.996618 2.49758 0.00501235 162 4 1 1.04289e-06 
-0.0906259 0.00548008 -3.02956 0.0025 1.00363 1.00497 2.50374 0.00498194 163 4 1 -3.02789e-06 
-0.0881412 0.00821317 0.203419 0.0025 1.0066 1.00918 2.50659 0.00496724 164 4 1 -9.21764e-07 
-0.0856587 0.00885675 -1.26628 0.0025 1.00835 1.01182 2.50826 0.0049586 165 4 1 3.0387e-06 
-0.0831826 0.0146518 -4.06929 0.0025 1.01271 1.01791 2.5127 0.00493726 166 4 1 1.15761e-06 
-0.0807214 0.0221206 -2.773 0.0025 1.01797 1.02516 2.51798 0.00491174 167 4 1 -2.51934e-06 
-0.0782708 0.0247769 -0.171836 0.0025 1.02052 1.02874 2.52045 0.00489949 168 4 1 -2.02607e-06 
-0.0758219 0.0245144 0.332618 0.0025 1.02061 1.02895 2.52051 0.00489901 169 3 1 -4.83585e-07 
-0.0733718 0.0237694 0.393743 0.0025 1.02001 1.02813 2.51991 0.0049019 170 4 1 -1.62125e-07 
-0.07092 0.0228677 0.454681 0.0025 1.01919 1.02697 2.5191 0.00490586 171 4 1 -1.7241e-07 
-0.068466 0.0217329 0.581694 0.0025 1.01815 1.02549 2.51807 0.00491088 172 4 1 -1.97046e-07 
-0.0660091 0.020288 0.739265 0.0025 1.01685 1.02367 2.51679 0.00491715 173 4 1 -1.66583e-07 
-0.0635488 0.0185437 0.879002 0.0025 1.01532 1.02152 2.51527 0.00492455 174 4 1 -9.40588e-08 
-0.0610846 0.0165802 0.971582 0.0025 1.01363 1.01914 2.51359 0.00493275 175 4 1 -8.29163e-09 
-0.0586161 0.0145064 1.0086 0.0025 1.01188 1.01667 2.51184 0.00494132 176 4 1 6.90209e-08 
-0.0561432 0.0124294 0.994885 0.0025 1.01014 1.01423 2.51011 0.00494983 177 4 1 1.27342e-07 
-0.0536662 0.0104381 0.941228 0.0025 1.00848 1.0119 2.50846 0.00495795 178 4 1 1.64446e-07 
-0.0511853 0.00859766 0.859827 0.0025 1.00696 1.00977 2.50695 0.00496543 179 4 1 1.82551e-07 
-0.0487008 0.00694947 0.762008 0.0025 1.00561 1.00787 2.5056 0.00497211 180 4 1 1.8563e-07 
-0.0462132 0.00551424 0.657269 0.0025 1.00444 1.00623 2.50443 0.00497791 181 4 1 1.77908e-07 
-0.0437229 0.00429605 0.552994 0.0025 1.00345 1.00484 2.50344 0.00498282 182 4 1 1.63155e-07 
-0.0412304 0.00328651 0.454503 0.0025 1.00263 1.00369 2.50263 0.00498688 183 4 1 1.44433e-07 
-0.038736 0.00246875 0.365274 0.0025 1.00197 1.00277 2.50197 0.00499016 184 4 1 1.24073e-07 
-0.0362402 0.00182077 0.287237 0.0025 1.00145 1.00204 2.50145 0.00499275 185 4 1 1.03758e-07 
-0.0337432 0.00131827 0.221091 0.0025 1.00105 1.00147 2.50105 0.00499476 186 4 1 8.46322e-08 
-0.0312454 0.000936804 0.166611 0.0025 1.00074 1.00104 2.50074 0.00499628 187 4 1 6.74073e-08 
-0.028747 0.000653253 0.122938 0.0025 1.00052 1.00073 2.50052 0.00499741 188 4 1 5.2458e-08 
-0.026248 0.000446875 0.0888219 0.0025 1.00035 1.0005 2.50035 0.00499823 189 4 1 3.99017e-08 
-0.0237487 0.000299796 0.0628308 0.0025 1.00024 1.00033 2.50024 0.00499882 190 4 1 2.96695e-08 
-0.0212492 0.00019717 0.0435092 0.0025 1.00016 1.00022 2.50016 0.00499922 191 4 1 2.15668e-08 
-0.0187495 0.000127068 0.0294874 0.0025 1.0001 1.00014 2.5001 0.0049995 192 4 1 1.53258e-08 
-0.0162497 8.01981e-05 0.0195501 0.0025 1.00006 1.00009 2.50006 0.00499968 193 4 1 1.06484e-08 
-0.0137498 4.95248e-05 0.0126687 0.0025 1.00004 1.00006 2.50004 0.0049998 194 4 1 7.23797e-09 
-0.0112499 2.98657e-05 0.00800631 0.0025 1.00002 1.00003 2.50002 0.00499988 195 4 1 4.82278e-09 
-0.00874994 1.74941e-05 0.00490364 0.0025 1.00001 1.00002 2.50001 0.00499993 196 4 1 3.1697e-09 
-0.00624997 9.78031e-06 0.0028537 0.0025 1.00001 1.00001 2.50001 0.00499996 197 4 1 2.09141e-09 
-0.00374999 4.8803e-06 0.00146979 0.0025 1.00001 1.00001 2.50001 0.00499997 198 4 1 1.44868e-09 
-0.00125 1.4717e-06 0.000451229 0.0025 1 1.00001 2.5 0.00499998 199 4 1 1.14994e-09 
0.00125 -1.4717e-06 -0.000451229 0.0025 1 1.00001 2.5 0.00499998 200 4 1 1.14994e-09 
0.00374999 -4.8803e-06 -0.00146979 0.0025 1.00001 1.00001 2.50001 0.00499997 201 4 1 1.44868e-09 
0.00624997 -9.78031e-06 -0.0028537 0.0025 1.00001 1.00001 2.50001 0.00499996 202 4 1 2.09141e-09 
0.00874994 -1.74941e-05 -0.00490364 0.0025 1.00001 1.00002 2.50001 0.00499993 203 4 1 3.1697e-09 
0.0112499 -2.98657e-05 -0.00800631 0.0025 1.00002 1.00003 2.50002 0.00499988 204 4 1 4.82278e-09 
0.0137498 -4.95248e-05 -0.0126687 0.0025 1.00004 1.00006 2.50004 0.0049998 205 4 1 7.23797e-09 
0.0162497 -8.01981e-05 -0.0195501 0.0025 1.00006 1.00009 2.50006 0.00499968 206 4 1 1.06484e-08 
0.0187495 -0.000127068 -0.0294874 0.0025 1.0001 1.00014 2.5001 0.0049995 207 4 1 1.53258e-08 
0.0212492 -0.00019717 -0.0435092 0.0025 1.00016 1.00022 2.50016 0.00499922 208 4 1 2.15668e-08 
0.0237487 -0.000299796 -0.0628308 0.0025 1.00024 1.00033 2.50024 0.00499882 209 4 1 2.96695e-08 
0.026248 -0.000446875 -0.0888219 0.0025 1.00035 1.0005 2.50035 0.00499823 210 4 1 3.99017e-08 
0.028747 -0.000653253 -0.122938 0.0025 1.00052 1.00073 2.50052 0.00499741 211 4 1 5.2458e-08 
