# Time [s]: 0.340026
# Columns: pos [m], vel [m/s], acc [m/s^2], mass [kg], dens [kg/m^3], pres [Pa], ene [J/kg], sml [m], id, neighbor, alpha, gradh, ...additional?
1.27336 -0.673087 0.000264189 0.0025 0.511053 0.43273 2.15251 0.00978372 0 4 1 -0.000134225 
1.27814 -0.673088 0.000274108 0.0025 0.53691 0.426192 1.95004 0.00931254 1 4 1 0.000179252 
1.28267 -0.673089 0.000284569 0.0025 0.54824 0.430862 1.9685 0.0091201 2 3 1 -1.90586e-05 
1.28726 -0.67309 0.000296299 0.0025 0.545975 0.429197 1.96465 0.00915794 3 5 1 3.48574e-06 
1.29183 -0.673092 0.00030973 0.0025 0.546372 0.429351 1.96458 0.00915127 4 4 1 -1.38708e-07 
1.29641 -0.673093 0.00032565 0.0025 0.546383 0.429321 1.96435 0.00915109 5 4 1 1.43695e-07 
1.30098 -0.673094 0.0003444 0.0025 0.546405 0.42932 1.96429 0.00915071 6 4 1 -3.55157e-09 
1.30556 -0.673096 0.000365421 0.0025 0.546418 0.429316 1.96423 0.0091505 7 4 1 8.18965e-09 
1.31013 -0.673098 0.000387558 0.0025 0.546432 0.429315 1.96417 0.00915027 8 4 1 4.7171e-09 
1.31471 -0.673099 0.000410017 0.0025 0.546444 0.429314 1.96413 0.00915007 9 4 1 5.42849e-09 
1.31928 -0.673101 0.000433201 0.0025 0.546454 0.429313 1.96408 0.00914989 10 4 1 -2.28921e-09 
1.32386 -0.673103 0.000458583 0.0025 0.546465 0.429312 1.96404 0.00914972 11 4 1 4.6733e-09 
1.32843 -0.673106 0.000487465 0.0025 0.546474 0.42931 1.964 0.00914956 12 4 1 2.78735e-09 
1.33301 -0.673108 0.000519601 0.0025 0.546482 0.429309 1.96397 0.00914943 13 4 1 3.50115e-09 
1.33758 -0.673111 0.000553029 0.0025 0.546489 0.429308 1.96393 0.00914931 14 4 1 2.04728e-09 
1.34216 -0.673113 0.000585747 0.0025 0.546496 0.429306 1.9639 0.0091492 15 4 1 -1.65128e-09 
1.34673 -0.673116 0.000618116 0.0025 0.546502 0.429305 1.96387 0.0091491 16 4 1 4.83488e-09 
1.35131 -0.673119 0.000653833 0.0025 0.546507 0.429303 1.96385 0.00914901 17 4 1 1.40775e-09 
1.35588 -0.673123 0.000697991 0.0025 0.546511 0.429301 1.96383 0.00914894 18 4 1 -1.28482e-09 
1.36046 -0.673126 0.000753188 0.0025 0.546516 0.429299 1.9638 0.00914887 19 4 1 2.58732e-09 
1.36503 -0.67313 0.000816792 0.0025 0.546519 0.429297 1.96378 0.00914881 20 4 1 1.04256e-09 
1.36961 -0.673134 0.000882112 0.0025 0.546522 0.429295 1.96376 0.00914876 21 4 1 1.06489e-09 
1.37418 -0.673138 0.000943241 0.0025 0.546525 0.429293 1.96374 0.00914872 22 4 1 9.42713e-10 
1.37875 -0.673143 0.00100007 0.0025 0.546526 0.42929 1.96372 0.00914869 23 4 1 -2.75378e-10 
1.38333 -0.673148 0.00105936 0.0025 0.546528 0.429287 1.9637 0.00914866 24 4 1 1.37011e-09 
1.3879 -0.673154 0.00113083 0.0025 0.546529 0.429285 1.96369 0.00914864 25 4 1 6.03853e-10 
1.39248 -0.67316 0.00122095 0.0025 0.54653 0.429282 1.96367 0.00914863 26 4 1 -5.33016e-10 
1.39705 -0.673166 0.00132911 0.0025 0.54653 0.429278 1.96365 0.00914863 27 3 1 1.01216e-09 
1.40163 -0.673173 0.00144867 0.0025 0.54653 0.429275 1.96364 0.00914863 28 4 1 6.28005e-10 
1.4062 -0.67318 0.00157162 0.0025 0.546529 0.429271 1.96362 0.00914864 29 4 1 -1.01849e-09 
1.41077 -0.673188 0.00169343 0.0025 0.546528 0.429266 1.96361 0.00914866 30 4 1 2.45424e-10 
1.41535 -0.673196 0.00181508 0.0025 0.546526 0.429262 1.96359 0.00914869 31 4 1 1.69148e-09 
1.41992 -0.673205 0.00194231 0.0025 0.546524 0.429257 1.96358 0.00914873 32 4 1 -1.16332e-09 
1.4245 -0.673215 0.00208302 0.0025 0.546522 0.429252 1.96356 0.00914877 33 4 1 -1.18184e-09 
1.42907 -0.673226 0.0022427 0.0025 0.546519 0.429246 1.96355 0.00914882 34 4 1 1.70828e-09 
1.43365 -0.673238 0.00241754 0.0025 0.546515 0.42924 1.96353 0.00914888 35 4 1 -6.53739e-10 
1.43822 -0.673251 0.00258818 0.0025 0.546511 0.429233 1.96352 0.00914895 36 4 1 -1.30518e-09 
1.44279 -0.673265 0.00272317 0.0025 0.546507 0.429226 1.9635 0.00914902 37 4 1 1.09022e-09 
1.44737 -0.673281 0.00279967 0.0025 0.546502 0.429219 1.96348 0.00914911 38 4 1 -1.13545e-10 
1.45194 -0.673299 0.00283467 0.0025 0.546496 0.429211 1.96347 0.0091492 39 4 1 -8.73144e-10 
1.45652 -0.67332 0.0029009 0.0025 0.54649 0.429203 1.96345 0.00914929 40 4 1 4.50748e-10 
1.46109 -0.673343 0.00310224 0.0025 0.546484 0.429195 1.96344 0.00914939 41 4 1 -1.81631e-10 
1.46567 -0.673369 0.00351651 0.0025 0.546478 0.429186 1.96342 0.00914951 42 4 1 -1.78542e-09 
1.47024 -0.673397 0.0041512 0.0025 0.54647 0.429175 1.9634 0.00914964 43 4 1 -1.72461e-09 
1.47482 -0.673426 0.00495263 0.0025 0.54646 0.429164 1.96338 0.0091498 44 4 1 -1.20221e-09 
1.47939 -0.673456 0.0058551 0.0025 0.546449 0.42915 1.96336 0.00914999 45 4 1 -2.849e-09 
1.48397 -0.673488 0.00681752 0.0025 0.546435 0.429133 1.96333 0.00915022 46 4 1 -3.40906e-09 
1.48854 -0.673522 0.00782156 0.0025 0.546419 0.429114 1.9633 0.00915049 47 4 1 -2.25546e-09 
1.49312 -0.673559 0.00885752 0.0025 0.5464 0.429092 1.96327 0.00915081 48 4 1 -2.70802e-09 
1.49769 -0.6736 0.0099294 0.0025 0.546378 0.429068 1.96323 0.00915117 49 4 1 -3.75645e-09 
-0.497731 -0.673645 0.0110737 0.0025 0.546354 0.42904 1.96319 0.00915157 50 4 1 -3.70517e-09 
-0.493155 -0.673696 0.0123604 0.0025 0.546327 0.429009 1.96315 0.00915203 51 4 1 -3.19032e-09 
-0.488579 -0.673753 0.0138546 0.0025 0.546296 0.428974 1.9631 0.00915254 52 4 1 -4.46417e-09 
-0.484002 -0.673816 0.0155651 0.0025 0.546262 0.428935 1.96305 0.00915312 53 4 1 -5.76223e-09 
-0.479426 -0.673888 0.0174427 0.0025 0.546223 0.428891 1.96299 0.00915378 54 4 1 -5.34891e-09 
-0.474849 -0.673969 0.019447 0.0025 0.546179 0.428842 1.96292 0.00915451 55 4 1 -5.06671e-09 
-0.470271 -0.674059 0.0216042 0.0025 0.54613 0.428788 1.96285 0.00915532 56 4 1 -6.40771e-09 
-0.465693 -0.67416 0.0239791 0.0025 0.546076 0.428728 1.96276 0.00915623 57 4 1 -7.11489e-09 
-0.461115 -0.674272 0.0265669 0.0025 0.546017 0.428661 1.96267 0.00915722 58 4 1 -5.98984e-09 
-0.456536 -0.674395 0.0291908 0.0025 0.545952 0.428589 1.96258 0.00915832 59 4 1 -5.74522e-09 
-0.451957 -0.674527 0.0315346 0.0025 0.545881 0.428511 1.96247 0.0091595 60 4 1 -5.00476e-09 
-0.447377 -0.674669 0.0332685 0.0025 0.545807 0.428428 1.96236 0.00916075 61 4 1 -2.4241e-09 
-0.442796 -0.674817 0.0341672 0.0025 0.54573 0.428343 1.96225 0.00916204 62 4 1 1.2778e-09 
-0.438214 -0.674967 0.0341798 0.0025 0.545654 0.428259 1.96214 0.00916332 63 4 1 4.31968e-09 
-0.433632 -0.675114 0.0332108 0.0025 0.545581 0.428178 1.96203 0.00916454 64 4 1 7.74935e-09 
-0.42905 -0.675249 0.0307862 0.0025 0.545514 0.428105 1.96193 0.00916566 65 4 1 1.30242e-08 
-0.424467 -0.675361 0.025906 0.0025 0.545458 0.428043 1.96184 0.0091666 66 4 1 2.13088e-08 
-0.419883 -0.675447 0.0170677 0.0025 0.54542 0.428 1.96179 0.00916725 67 4 1 2.8988e-08 
-0.4153 -0.675492 0.00453658 0.0025 0.545405 0.427983 1.96176 0.0091675 68 5 1 1.78444e-08 
-0.410716 -0.675515 0.0133149 0.0025 0.545407 0.427987 1.96176 0.00916747 69 4 1 9.49161e-08 
-0.406132 -0.67545 -0.0593364 0.0025 0.545488 0.428081 1.96187 0.00916611 70 4 1 2.40016e-07 
-0.40155 -0.674906 -0.169832 0.0025 0.545763 0.428385 1.96227 0.00916148 71 4 1 2.9344e-07 
-0.396971 -0.673961 -0.257099 0.0025 0.546272 0.428947 1.963 0.00915294 72 4 1 3.93825e-07 
-0.392397 -0.672513 -0.408427 0.0025 0.547084 0.429849 1.96416 0.00913937 73 4 1 7.28867e-07 
-0.387831 -0.670075 -0.726718 0.0025 0.54842 0.43133 1.96607 0.0091171 74 4 1 1.09459e-06 
-0.38328 -0.666114 -1.09354 0.0025 0.55048 0.433598 1.96902 0.00908298 75 4 1 1.18488e-06 
-0.378748 -0.660817 -1.35728 0.0025 0.553218 0.436612 1.97293 0.00903803 76 4 1 1.10858e-06 
-0.374242 -0.654593 -1.54113 0.0025 0.556462 0.440195 1.97755 0.00898534 77 4 1 1.07631e-06 
-0.369763 -0.64774 -1.68751 0.0025 0.560094 0.444221 1.9827 0.00892708 78 4 1 1.16599e-06 
-0.365314 -0.640247 -1.8596 0.0025 0.564087 0.448663 1.98835 0.00886388 79 4 1 1.33783e-06 
-0.360899 -0.632074 -2.05011 0.0025 0.568471 0.453553 1.99451 0.00879553 80 4 1 1.49615e-06 
-0.356519 -0.623189 -2.243 0.0025 0.573254 0.458903 2.00121 0.00872214 81 4 1 1.57023e-06 
-0.352176 -0.613688 -2.39504 0.0025 0.578391 0.464666 2.00836 0.00864467 82 4 1 1.5518e-06 
-0.347874 -0.603783 -2.50173 0.0025 0.58379 0.470743 2.01584 0.00856473 83 4 1 1.4494e-06 
-0.343612 -0.593664 -2.54044 0.0025 0.589332 0.477007 2.02347 0.00848418 84 4 1 1.3196e-06 
-0.339389 -0.583592 -2.54608 0.0025 0.594913 0.48334 2.03111 0.00840459 85 4 1 1.21695e-06 
-0.335207 -0.573652 -2.53074 0.0025 0.600472 0.489672 2.03868 0.00832678 86 4 1 1.13246e-06 
-0.331062 -0.563891 -2.50691 0.0025 0.605972 0.495961 2.04613 0.0082512 87 4 1 1.06716e-06 
-0.326955 -0.554328 -2.47979 0.0025 0.611399 0.502189 2.05344 0.00817796 88 4 1 9.9135e-07 
-0.322884 -0.544998 -2.43559 0.0025 0.616735 0.508335 2.06058 0.00810721 89 4 1 9.5061e-07 
-0.318848 -0.53591 -2.41395 0.0025 0.621983 0.514401 2.06758 0.0080388 90 4 1 9.26179e-07 
-0.314845 -0.526972 -2.3871 0.0025 0.627159 0.520404 2.07444 0.00797246 91 4 1 8.80478e-07 
-0.310875 -0.518252 -2.3574 0.0025 0.632259 0.526338 2.08117 0.00790815 92 4 1 8.57822e-07 
-0.306937 -0.509697 -2.33903 0.0025 0.637294 0.532216 2.08779 0.00784567 93 4 1 8.5465e-07 
-0.30303 -0.501261 -2.32982 0.0025 0.642284 0.53806 2.09431 0.00778471 94 4 1 8.52166e-07 
-0.299152 -0.492932 -2.32496 0.0025 0.647246 0.543889 2.10076 0.00772504 95 4 1 8.77674e-07 
-0.295304 -0.484646 -2.34594 0.0025 0.652209 0.549738 2.10719 0.00766625 96 4 1 9.03202e-07 
-0.291486 -0.476365 -2.36363 0.0025 0.657198 0.555635 2.11362 0.00760806 97 4 1 9.3391e-07 
-0.287696 -0.468071 -2.40335 0.0025 0.662235 0.561608 2.12009 0.00755019 98 4 1 1.00839e-06 
-0.283936 -0.459676 -2.47533 0.0025 0.667364 0.567707 2.12664 0.00749216 99 4 1 1.02558e-06 
-0.280204 -0.451141 -2.51276 0.0025 0.672586 0.573935 2.13328 0.00743399 100 4 1 1.00376e-06 
-0.276501 -0.442589 -2.54649 0.0025 0.677874 0.580262 2.13997 0.007376 101 4 1 1.0442e-06 
-0.272828 -0.433951 -2.6114 0.0025 0.683243 0.586707 2.14674 0.00731804 102 4 1 1.04826e-06 
-0.269183 -0.4252 -2.64231 0.0025 0.688688 0.593261 2.15356 0.00726018 103 4 1 1.00504e-06 
-0.265568 -0.416489 -2.65989 0.0025 0.694172 0.599884 2.16041 0.00720283 104 4 1 9.98606e-07 
-0.26198 -0.407763 -2.68846 0.0025 0.699685 0.606565 2.16725 0.00714607 105 4 1 9.77989e-07 
-0.258421 -0.399079 -2.6957 0.0025 0.705217 0.613288 2.17409 0.00709002 106 4 1 9.42656e-07 
-0.25489 -0.390462 -2.69914 0.0025 0.710747 0.620031 2.18089 0.00703485 107 4 1 9.3387e-07 
-0.251386 -0.381896 -2.71118 0.0025 0.716277 0.626795 2.18767 0.00698054 108 4 1 9.35022e-07 
-0.24791 -0.373362 -2.72784 0.0025 0.721814 0.633588 2.19441 0.00692699 109 4 1 8.91541e-07 
-0.244459 -0.364891 -2.70988 0.0025 0.727336 0.640384 2.20111 0.0068744 110 4 1 8.74384e-07 
-0.241035 -0.356539 -2.72264 0.0025 0.732841 0.647181 2.20776 0.00682276 111 4 1 8.94359e-07 
-0.237636 -0.348172 -2.74111 0.0025 0.738352 0.654004 2.21439 0.00677183 112 4 1 8.48217e-07 
-0.234263 -0.339916 -2.71949 0.0025 0.743847 0.660826 2.22096 0.00672181 113 4 1 8.17768e-07 
-0.230915 -0.331759 -2.71872 0.0025 0.749311 0.667634 2.22748 0.0066728 114 4 1 8.46401e-07 
-0.22759 -0.323628 -2.74354 0.0025 0.754779 0.674465 2.23396 0.00662446 115 4 1 8.48418e-07 
-0.22429 -0.315535 -2.75511 0.0025 0.760258 0.681328 2.24044 0.00657671 116 4 1 7.94322e-07 
-0.221013 -0.307504 -2.73218 0.0025 0.765716 0.688184 2.24685 0.00652984 117 4 1 7.65033e-07 
-0.21776 -0.299604 -2.7272 0.0025 0.771141 0.695023 2.25321 0.0064839 118 4 1 8.17861e-07 
-0.21453 -0.291701 -2.77538 0.0025 0.776582 0.701897 2.25955 0.00643847 119 4 1 7.96964e-07 
-0.211322 -0.283794 -2.75988 0.0025 0.782031 0.708798 2.26588 0.00639361 120 4 1 7.0008e-07 
-0.208136 -0.276079 -2.71202 0.0025 0.787423 0.715651 2.27212 0.00634983 121 4 1 7.40314e-07 
-0.204972 -0.268409 -2.75577 0.0025 0.792799 0.722503 2.27831 0.00630677 122 4 1 8.02003e-07 
-0.201829 -0.260692 -2.79023 0.0025 0.798215 0.729421 2.28452 0.00626397 123 4 1 7.3595e-07 
-0.198708 -0.253026 -2.76376 0.0025 0.803626 0.73635 2.2907 0.0062218 124 4 1 6.72325e-07 
-0.195607 -0.245509 -2.73781 0.0025 0.808988 0.74324 2.2968 0.00618056 125 4 1 7.12136e-07 
-0.192527 -0.238048 -2.77239 0.0025 0.814343 0.750138 2.30287 0.00613992 126 4 1 7.39095e-07 
-0.189467 -0.230554 -2.78979 0.0025 0.819721 0.757081 2.30894 0.00609964 127 4 1 7.01631e-07 
-0.186427 -0.223099 -2.78679 0.0025 0.825095 0.764035 2.31499 0.00605991 128 4 1 6.26016e-07 
-0.183407 -0.215778 -2.73134 0.0025 0.830415 0.770942 2.32095 0.00602109 129 4 1 6.41407e-07 
-0.180406 -0.20857 -2.7592 0.0025 0.835705 0.777829 2.32685 0.00598298 130 4 1 7.20566e-07 
-0.177424 -0.201295 -2.80829 0.0025 0.841036 0.784784 2.33277 0.00594505 131 4 1 7.06281e-07 
-0.174461 -0.193998 -2.82183 0.0025 0.846397 0.791794 2.33871 0.00590739 132 4 1 5.98678e-07 
-0.171517 -0.186832 -2.75146 0.0025 0.851708 0.798756 2.34457 0.00587056 133 4 1 5.57996e-07 
-0.16859 -0.179843 -2.73261 0.0025 0.856947 0.805647 2.35032 0.00583467 134 4 1 6.82286e-07 
-0.165682 -0.172806 -2.82569 0.0025 0.862225 0.812604 2.3561 0.00579895 135 4 1 7.20402e-07 
-0.162791 -0.165645 -2.85822 0.0025 0.867573 0.819665 2.36194 0.0057632 136 4 1 5.59233e-07 
-0.159919 -0.158627 -2.75928 0.0025 0.872863 0.826666 2.36769 0.00572827 137 4 1 4.59563e-07 
-0.157063 -0.151889 -2.68768 0.0025 0.878027 0.833525 2.37328 0.00569459 138 4 1 6.18366e-07 
-0.154224 -0.145156 -2.80258 0.0025 0.883209 0.840428 2.37887 0.00566117 139 4 1 7.60965e-07 
-0.151402 -0.138155 -2.90984 0.0025 0.88853 0.847519 2.3846 0.00562727 140 4 1 6.00337e-07 
-0.148597 -0.131192 -2.81907 0.0025 0.89385 0.854623 2.3903 0.00559378 141 4 1 3.9004e-07 
-0.145808 -0.124577 -2.67548 0.0025 0.899001 0.86153 2.3958 0.00556173 142 4 1 4.91282e-07 
-0.143035 -0.118127 -2.73945 0.0025 0.904089 0.868374 2.40121 0.00553043 143 4 1 7.46384e-07 
-0.140278 -0.111386 -2.92894 0.0025 0.909334 0.875433 2.40677 0.00549853 144 4 1 6.73397e-07 
-0.137536 -0.104503 -2.89168 0.0025 0.914668 0.882618 2.41241 0.00546647 145 4 1 3.68763e-07 
-0.134811 -0.0979344 -2.69619 0.0025 0.919831 0.889599 2.41785 0.00543578 146 4 1 3.25131e-07 
-0.132101 -0.0917748 -2.6341 0.0025 0.924809 0.896357 2.42307 0.00540652 147 4 1 6.09824e-07 
-0.129404 -0.0854543 -2.83108 0.0025 0.929865 0.903232 2.42836 0.00537712 148 4 1 7.56015e-07 
-0.126723 -0.0788093 -2.95041 0.0025 0.935123 0.910382 2.43385 0.00534689 149 4 1 5.24925e-07 
-0.124058 -0.0721856 -2.82952 0.0025 0.94037 0.917532 2.4393 0.00531705 150 4 1 2.82564e-07 
-0.121406 -0.065997 -2.64817 0.0025 0.945403 0.924415 2.44451 0.00528875 151 4 1 3.69191e-07 
-0.118769 -0.0600064 -2.67716 0.0025 0.950319 0.931163 2.44958 0.00526139 152 4 1 6.22876e-07 
-0.116145 -0.0538248 -2.85255 0.0025 0.95536 0.938089 2.45477 0.00523363 153 4 1 7.02923e-07 
-0.113535 -0.0473396 -2.97429 0.0025 0.960577 0.945259 2.46013 0.0052052 154 4 1 3.81113e-07 
-0.11094 -0.0410092 -2.72134 0.0025 0.965682 0.952284 2.46536 0.00517769 155 4 1 4.65103e-09 
-0.108357 -0.0354022 -2.36604 0.0025 0.970384 0.958789 2.47014 0.0051526 156 4 1 3.64773e-07 
-0.105787 -0.0300669 -2.64447 0.0025 0.975031 0.965259 2.47485 0.00512804 157 4 1 1.19479e-06 
-0.103229 -0.0235325 -3.4109 0.0025 0.980296 0.972546 2.48022 0.0051005 158 4 1 3.81661e-07 
-0.100686 -0.0167515 -2.6004 0.0025 0.985479 0.979683 2.48548 0.00507368 159 4 1 -1.16201e-06 
-0.0981556 -0.0127153 -1.23699 0.0025 0.98931 0.985066 2.48926 0.00505403 160 4 1 6.0681e-07 
-0.0956324 -0.00873138 -2.91664 0.0025 0.993354 0.990817 2.49331 0.00503345 161 4 1 2.91082e-06 
-0.0931221 -0.000299432 -4.7291 0.0025 0.999514 0.999329 2.4996 0.00500243 162 4 1 -5.07026e-07 
-0.0906299 0.00696512 -1.77597 0.0025 1.00486 1.00668 2.50495 0.00497583 163 4 1 -3.11291e-06 
-0.0881462 0.00805719 0.301347 0.0025 1.00695 1.00974 2.5069 0.00496549 164 4 1 6.09334e-07 
-0.0856644 0.00998922 -2.39833 0.0025 1.00933 1.01321 2.50925 0.00495379 165 4 1 3.21269e-06 
-0.0831924 0.0171964 -4.165 0.0025 1.01445 1.02031 2.51446 0.00492878 166 4 1 -3.19171e-07 
-0.0807356 0.0235247 -1.77072 0.0025 1.01911 1.02674 2.5191 0.00490624 167 4 1 -2.76907e-06 
-0.0782862 0.0247932 0.119342 0.0025 1.0207 1.02902 2.52062 0.0048986 168 3 1 -1.42776e-06 
-0.075837 0.024302 0.354944 0.0025 1.02046 1.02875 2.52036 0.00489974 169 4 1 -2.964e-07 
-0.0733864 0.0235252 0.396597 0.0025 1.0198 1.02782 2.5197 0.00490294 170 4 1 -1.55777e-07 
-0.070934 0.0225786 0.480947 0.0025 1.01892 1.02659 2.51884 0.00490715 171 4 1 -1.90592e-07 
-0.0684793 0.0213592 0.627432 0.0025 1.01781 1.02501 2.51773 0.00491253 172 4 1 -1.98436e-07 
-0.0660215 0.0198162 0.787301 0.0025 1.01643 1.02308 2.51637 0.00491918 173 4 1 -1.49745e-07 
-0.0635601 0.017989 0.916026 0.0025 1.01484 1.02084 2.51479 0.00492689 174 4 1 -6.83337e-08 
-0.0610946 0.0159734 0.99194 0.0025 1.01312 1.01841 2.51308 0.00493527 175 4 1 1.76163e-08 
-0.0586248 0.0138819 1.01217 0.0025 1.01135 1.01593 2.51132 0.00494389 176 4 1 9.00844e-08 
-0.0561507 0.0118177 0.984453 0.0025 1.00963 1.01351 2.5096 0.00495233 177 4 1 1.41865e-07 
-0.0536725 0.00986277 0.920526 0.0025 1.008 1.01123 2.50799 0.0049603 178 4 1 1.7267e-07 
-0.0511904 0.00807468 0.832536 0.0025 1.00653 1.00916 2.50652 0.00496756 179 4 1 1.85576e-07 
-0.0487049 0.00648799 0.731318 0.0025 1.00523 1.00734 2.50522 0.00497398 180 4 1 1.84779e-07 
-0.0462165 0.00511776 0.625727 0.0025 1.00412 1.00577 2.50411 0.00497951 181 4 1 1.7442e-07 
-0.0437254 0.0039637 0.522493 0.0025 1.00318 1.00446 2.50317 0.00498416 182 4 1 1.58064e-07 
-0.0412323 0.00301431 0.426339 0.0025 1.00241 1.00338 2.50241 0.00498797 183 4 1 1.38541e-07 
-0.0387375 0.00225072 0.340234 0.0025 1.0018 1.00252 2.50179 0.00499103 184 4 1 1.1797e-07 
-0.0362413 0.0016499 0.265693 0.0025 1.00131 1.00184 2.50131 0.00499344 185 4 1 9.78574e-08 
-0.033744 0.00118719 0.203098 0.0025 1.00094 1.00133 2.50094 0.00499529 186 4 1 7.92035e-08 
-0.031246 0.000838346 0.151995 0.0025 1.00067 1.00093 2.50066 0.00499668 187 4 1 6.26085e-08 
-0.0287473 0.000580844 0.111373 0.0025 1.00046 1.00065 2.50046 0.0049977 188 4 1 4.83597e-08 
-0.0262483 0.000394735 0.0799011 0.0025 1.00031 1.00044 2.50031 0.00499844 189 4 1 3.65096e-08 
-0.0237489 0.000263038 0.0561183 0.0025 1.00021 1.00029 2.50021 0.00499896 190 4 1 2.69431e-08 
-0.0212493 0.000171802 0.0385802 0.0025 1.00014 1.00019 2.50014 0.00499932 191 4 1 1.94361e-08 
-0.0187496 0.000109935 0.0259548 0.0025 1.00009 1.00012 2.50009 0.00499957 192 4 1 1.37053e-08 
-0.0162497 6.88786e-05 0.0170794 0.0025 1.00005 1.00008 2.50005 0.00499973 193 4 1 9.44753e-09 
-0.0137499 4.22156e-05 0.0109837 0.0025 1.00003 1.00005 2.50003 0.00499983 194 4 1 6.36974e-09 
-0.0112499 2.52628e-05 0.00688845 0.0025 1.00002 1.00003 2.50002 0.0049999 195 4 1 4.20832e-09 
-0.00874995 1.46847e-05 0.0041875 0.0025 1.00001 1.00002 2.50001 0.00499994 196 4 1 2.74068e-09 
-0.00624998 8.15052e-06 0.00242025 0.0025 1.00001 1.00001 2.50001 0.00499997 197 4 1 1.79024e-09 
-0.00374999 4.04299e-06 0.00123972 0.0025 1 1.00001 2.5 0.00499998 198 4 1 1.22707e-09 
-0.00125 1.21501e-06 0.000379414 0.0025 1 1 2.5 0.00499998 199 4 1 9.66352e-10 
0.00125 -1.21501e-06 -0.000379414 0.0025 1 1 2.5 0.00499998 200 4 1 9.66352e-10 
0.00374999 -4.04299e-06 -0.00123972 0.0025 1 1.00001 2.5 0.00499998 201 4 1 1.22708e-09 
0.00624998 -8.15052e-06 -0.00242025 0.0025 1.00001 1.00001 2.50001 0.00499997 202 4 1 1.79024e-09 
0.00874995 -1.46847e-05 -0.0041875 0.0025 1.00001 1.00002 2.50001 0.00499994 203 4 1 2.74068e-09 
0.0112499 -2.52628e-05 -0.00688845 0.0025 1.00002 1.00003 2.50002 0.0049999 204 4 1 4.20832e-09 
0.0137499 -4.22156e-05 -0.0109837 0.0025 1.00003 1.00005 2.50003 0.00499983 205 4 1 6.36974e-09 
0.0162497 -6.88786e-05 -0.0170794 0.0025 1.00005 1.00008 2.50005 0.00499973 206 4 1 9.44753e-09 
0.0187496 -0.000109935 -0.0259548 0.0025 1.00009 1.00012 2.50009 0.00499957 207 4 1 1.37053e-08 
0.0212493 -0.000171802 -0.0385802 0.0025 1.00014 1.00019 2.50014 0.00499932 208 4 1 1.94361e-08 
0.0237489 -0.000263038 -0.0561183 0.0025 1.00021 1.00029 2.50021 0.00499896 209 4 1 2.69431e-08 
0.0262483 -0.000394735 -0.0799011 0.0025 1.00031 1.00044 2.50031 0.00499844 210 4 1 3.65096e-08 
0.0287473 -0.000580844 -0.111373 0.0025 1.00046 1.00065 2.50046 0.0049977 211 4 1 4.83597e-08 
