# Time [s]: 0.339408
# Columns: pos [m], vel [m/s], acc [m/s^2], mass [kg], dens [kg/m^3], pres [Pa], ene [J/kg], sml [m], id, neighbor, alpha, gradh, ...additional?
1.27377 -0.673088 0.000267025 0.0025 0.511053 0.432729 2.15251 0.00978372 0 4 1 -0.000134225 
1.27855 -0.673089 0.00027708 0.0025 0.53691 0.426192 1.95004 0.00931255 1 4 1 0.000179252 
1.28309 -0.67309 0.000287717 0.0025 0.54824 0.430861 1.9685 0.0091201 2 3 1 -1.90586e-05 
1.28767 -0.673091 0.000299608 0.0025 0.545974 0.429197 1.96465 0.00915794 3 5 1 3.48574e-06 
1.29225 -0.673092 0.000313113 0.0025 0.546372 0.429351 1.96458 0.00915127 4 4 1 -1.38708e-07 
1.29682 -0.673093 0.000329041 0.0025 0.546383 0.429321 1.96435 0.00915109 5 4 1 1.43695e-07 
1.3014 -0.673095 0.000347844 0.0025 0.546405 0.42932 1.96429 0.00915072 6 4 1 -3.55182e-09 
1.30598 -0.673096 0.000369079 0.0025 0.546418 0.429316 1.96423 0.0091505 7 4 1 8.18905e-09 
1.31055 -0.673098 0.000391591 0.0025 0.546432 0.429315 1.96417 0.00915027 8 4 1 4.71617e-09 
1.31513 -0.6731 0.000414434 0.0025 0.546444 0.429314 1.96413 0.00915008 9 4 1 5.42757e-09 
1.3197 -0.673102 0.000437827 0.0025 0.546454 0.429313 1.96408 0.0091499 10 4 1 -2.28976e-09 
1.32428 -0.673104 0.000463199 0.0025 0.546465 0.429311 1.96404 0.00914972 11 4 1 4.67312e-09 
1.32885 -0.673106 0.000492053 0.0025 0.546474 0.42931 1.964 0.00914956 12 4 1 2.78708e-09 
1.33342 -0.673108 0.000524457 0.0025 0.546482 0.429309 1.96396 0.00914943 13 4 1 3.50013e-09 
1.338 -0.673111 0.000558609 0.0025 0.546489 0.429307 1.96393 0.00914931 14 4 1 2.0453e-09 
1.34257 -0.673114 0.000592284 0.0025 0.546496 0.429306 1.9639 0.0091492 15 4 1 -1.65366e-09 
1.34715 -0.673117 0.000625338 0.0025 0.546502 0.429304 1.96387 0.0091491 16 4 1 4.83319e-09 
1.35172 -0.67312 0.000661088 0.0025 0.546507 0.429303 1.96385 0.00914902 17 4 1 1.40744e-09 
1.3563 -0.673123 0.000704777 0.0025 0.546511 0.429301 1.96383 0.00914894 18 4 1 -1.28423e-09 
1.36087 -0.673127 0.000759712 0.0025 0.546515 0.429299 1.9638 0.00914887 19 4 1 2.58724e-09 
1.36545 -0.673131 0.000824031 0.0025 0.546519 0.429297 1.96378 0.00914881 20 4 1 1.04023e-09 
1.37002 -0.673135 0.000891228 0.0025 0.546522 0.429295 1.96376 0.00914876 21 4 1 1.06008e-09 
1.3746 -0.673139 0.000954736 0.0025 0.546524 0.429292 1.96374 0.00914873 22 4 1 9.36966e-10 
1.37917 -0.673144 0.00101335 0.0025 0.546526 0.42929 1.96372 0.00914869 23 4 1 -2.79722e-10 
1.38374 -0.673149 0.00107311 0.0025 0.546528 0.429287 1.9637 0.00914867 24 4 1 1.36861e-09 
1.38832 -0.673154 0.00114393 0.0025 0.546529 0.429284 1.96369 0.00914865 25 4 1 6.04663e-10 
1.39289 -0.67316 0.00123327 0.0025 0.546529 0.429281 1.96367 0.00914864 26 4 1 -5.32121e-10 
1.39747 -0.673167 0.00134164 0.0025 0.54653 0.429278 1.96365 0.00914864 27 3 1 1.01073e-09 
1.40204 -0.673174 0.00146289 0.0025 0.546529 0.429274 1.96364 0.00914864 28 4 1 6.23123e-10 
1.40662 -0.673181 0.00158874 0.0025 0.546529 0.42927 1.96362 0.00914865 29 4 1 -1.02624e-09 
1.41119 -0.673189 0.0017139 0.0025 0.546527 0.429266 1.96361 0.00914867 30 4 1 2.36465e-10 
1.41576 -0.673197 0.00183861 0.0025 0.546526 0.429261 1.96359 0.0091487 31 4 1 1.68302e-09 
1.42034 -0.673206 0.00196819 0.0025 0.546523 0.429256 1.96358 0.00914874 32 4 1 -1.17036e-09 
1.42491 -0.673217 0.00211062 0.0025 0.546521 0.429251 1.96356 0.00914878 33 4 1 -1.18806e-09 
1.42949 -0.673227 0.00227242 0.0025 0.546518 0.429245 1.96354 0.00914883 34 4 1 1.69993e-09 
1.43406 -0.673239 0.00245192 0.0025 0.546514 0.429239 1.96353 0.00914889 35 4 1 -6.69433e-10 
1.43864 -0.673252 0.00263226 0.0025 0.54651 0.429232 1.96351 0.00914896 36 4 1 -1.3331e-09 
1.44321 -0.673267 0.00278236 0.0025 0.546505 0.429225 1.9635 0.00914904 37 4 1 1.05094e-09 
1.44779 -0.673283 0.0028753 0.0025 0.5465 0.429217 1.96348 0.00914913 38 4 1 -1.53219e-10 
1.45236 -0.673301 0.00292001 0.0025 0.546495 0.429209 1.96347 0.00914922 39 4 1 -8.95161e-10 
1.45693 -0.673322 0.00298239 0.0025 0.546489 0.429201 1.96345 0.00914932 40 4 1 4.59643e-10 
1.46151 -0.673345 0.00316719 0.0025 0.546483 0.429193 1.96343 0.00914942 41 4 1 -1.45763e-10 
1.46608 -0.673371 0.0035617 0.0025 0.546476 0.429183 1.96342 0.00914954 42 4 1 -1.74388e-09 
1.47066 -0.673399 0.00418469 0.0025 0.546468 0.429173 1.9634 0.00914967 43 4 1 -1.70147e-09 
1.47523 -0.673429 0.00498733 0.0025 0.546458 0.429161 1.96338 0.00914983 44 4 1 -1.20868e-09 
1.47981 -0.67346 0.00590141 0.0025 0.546446 0.429147 1.96335 0.00915003 45 4 1 -2.88194e-09 
1.48438 -0.673492 0.00688189 0.0025 0.546432 0.42913 1.96333 0.00915026 46 4 1 -3.46141e-09 
1.48896 -0.673527 0.00790926 0.0025 0.546416 0.429111 1.9633 0.00915054 47 4 1 -2.32334e-09 
1.49353 -0.673565 0.0089733 0.0025 0.546397 0.429089 1.96327 0.00915085 48 4 1 -2.78754e-09 
1.49811 -0.673606 0.0100747 0.0025 0.546375 0.429064 1.96323 0.00915122 49 4 1 -3.83855e-09 
-0.497314 -0.673652 0.0112445 0.0025 0.546351 0.429036 1.96319 0.00915163 50 4 1 -3.77859e-09 
-0.492739 -0.673703 0.0125506 0.0025 0.546323 0.429004 1.96314 0.0091521 51 4 1 -3.25269e-09 
-0.488162 -0.673761 0.0140643 0.0025 0.546292 0.428969 1.9631 0.00915262 52 4 1 -4.52853e-09 
-0.483586 -0.673826 0.015804 0.0025 0.546257 0.428929 1.96304 0.00915321 53 4 1 -5.84488e-09 
-0.479009 -0.673899 0.0177217 0.0025 0.546217 0.428885 1.96298 0.00915387 54 4 1 -5.44652e-09 
-0.474432 -0.673981 0.0197654 0.0025 0.546173 0.428835 1.96291 0.00915461 55 4 1 -5.15037e-09 
-0.469855 -0.674072 0.0219459 0.0025 0.546123 0.42878 1.96284 0.00915544 56 4 1 -6.44359e-09 
-0.465277 -0.674175 0.0243235 0.0025 0.546069 0.428719 1.96275 0.00915636 57 4 1 -7.09239e-09 
-0.460698 -0.674289 0.0269049 0.0025 0.546008 0.428652 1.96266 0.00915737 58 4 1 -5.92705e-09 
-0.456119 -0.674413 0.0295258 0.0025 0.545942 0.428579 1.96256 0.00915848 59 4 1 -5.65576e-09 
-0.45154 -0.674547 0.031862 0.0025 0.545871 0.4285 1.96246 0.00915967 60 4 1 -4.86318e-09 
-0.44696 -0.674689 0.0335561 0.0025 0.545796 0.428416 1.96235 0.00916093 61 4 1 -2.16086e-09 
-0.442379 -0.674838 0.0343391 0.0025 0.545719 0.428331 1.96223 0.00916222 62 4 1 1.74875e-09 
-0.437797 -0.674988 0.0341361 0.0025 0.545643 0.428247 1.96212 0.0091635 63 4 1 5.02425e-09 
-0.433215 -0.675135 0.0328798 0.0025 0.545571 0.428167 1.96201 0.00916472 64 4 1 8.56993e-09 
-0.428633 -0.675268 0.0302063 0.0025 0.545505 0.428095 1.96192 0.00916581 65 4 1 1.36551e-08 
-0.424049 -0.675377 0.025292 0.0025 0.545451 0.428035 1.96183 0.00916672 66 4 1 2.21624e-08 
-0.419466 -0.675457 0.0159076 0.0025 0.545415 0.427995 1.96178 0.00916732 67 4 1 2.83287e-08 
-0.414882 -0.675494 0.0034597 0.0025 0.545403 0.42798 1.96176 0.00916754 68 5 1 2.0753e-08 
-0.410298 -0.675523 0.0115834 0.0025 0.545409 0.42799 1.96176 0.00916743 69 4 1 1.16715e-07 
-0.405715 -0.675408 -0.0773955 0.0025 0.545512 0.428108 1.96191 0.0091657 70 4 1 2.53408e-07 
-0.401133 -0.674797 -0.181284 0.0025 0.54582 0.428448 1.96235 0.00916053 71 4 1 2.96174e-07 
-0.396554 -0.673798 -0.271436 0.0025 0.546364 0.429049 1.96313 0.00915142 72 4 1 4.28646e-07 
-0.391981 -0.67225 -0.442934 0.0025 0.547233 0.430016 1.96437 0.00913688 73 4 1 7.90377e-07 
-0.387417 -0.669609 -0.782635 0.0025 0.548666 0.431602 1.96643 0.00911301 74 4 1 1.13057e-06 
-0.382868 -0.665424 -1.14042 0.0025 0.550835 0.433988 1.96953 0.00907713 75 4 1 1.17987e-06 
-0.37834 -0.659968 -1.38921 0.0025 0.553659 0.437099 1.97356 0.00903083 76 4 1 1.09744e-06 
-0.373837 -0.653634 -1.56323 0.0025 0.556967 0.440754 1.97827 0.00897719 77 4 1 1.0852e-06 
-0.369363 -0.646689 -1.71341 0.0025 0.560655 0.444844 1.9835 0.00891815 78 4 1 1.19275e-06 
-0.364919 -0.639088 -1.88883 0.0025 0.564708 0.449356 1.98922 0.00885413 79 4 1 1.368e-06 
-0.360509 -0.630797 -2.08273 0.0025 0.569158 0.45432 1.99547 0.00878491 80 4 1 1.52026e-06 
-0.356134 -0.621794 -2.27325 0.0025 0.574006 0.459746 2.00226 0.0087107 81 4 1 1.57794e-06 
-0.351798 -0.612201 -2.41787 0.0025 0.579198 0.465573 2.00948 0.00863262 82 4 1 1.54809e-06 
-0.347501 -0.602232 -2.51802 0.0025 0.584636 0.471699 2.01701 0.00855233 83 4 1 1.43393e-06 
-0.343245 -0.592093 -2.54598 0.0025 0.590201 0.47799 2.02466 0.0084717 84 4 1 1.3034e-06 
-0.339029 -0.582018 -2.54886 0.0025 0.59579 0.484337 2.03231 0.00839222 85 4 1 1.20831e-06 
-0.334853 -0.572088 -2.53205 0.0025 0.601351 0.490675 2.03987 0.00831462 86 4 1 1.1254e-06 
-0.330714 -0.562341 -2.50731 0.0025 0.60685 0.496967 2.04731 0.00823927 87 4 1 1.0586e-06 
-0.326613 -0.552797 -2.47768 0.0025 0.612272 0.503193 2.05461 0.0081663 88 4 1 9.83298e-07 
-0.322548 -0.543494 -2.43312 0.0025 0.617601 0.509335 2.06174 0.00809584 89 4 1 9.5135e-07 
-0.318517 -0.534417 -2.41612 0.0025 0.622845 0.5154 2.06873 0.00802767 90 4 1 9.22045e-07 
-0.31452 -0.525498 -2.38426 0.0025 0.628018 0.521401 2.07558 0.00796156 91 4 1 8.7567e-07 
-0.310556 -0.516795 -2.35748 0.0025 0.633113 0.527334 2.0823 0.00789748 92 4 1 8.61269e-07 
-0.306623 -0.508251 -2.34131 0.0025 0.638148 0.533215 2.0889 0.00783517 93 4 1 8.56042e-07 
-0.30272 -0.49982 -2.33177 0.0025 0.64314 0.539064 2.09542 0.00777436 94 4 1 8.57152e-07 
-0.298848 -0.491493 -2.3309 0.0025 0.648108 0.544903 2.10188 0.00771477 95 4 1 8.85576e-07 
-0.295005 -0.483194 -2.35316 0.0025 0.653082 0.550768 2.10832 0.00765601 96 4 1 9.09518e-07 
-0.291192 -0.474902 -2.37178 0.0025 0.658085 0.556685 2.11476 0.0075978 97 4 1 9.47196e-07 
-0.287408 -0.466581 -2.41797 0.0025 0.663143 0.562686 2.12125 0.00753986 98 4 1 1.0233e-06 
-0.283652 -0.458141 -2.49149 0.0025 0.668299 0.568821 2.12783 0.00748168 99 4 1 1.02512e-06 
-0.279926 -0.449586 -2.52063 0.0025 0.673544 0.57508 2.1345 0.00742342 100 4 1 1.00857e-06 
-0.276228 -0.441011 -2.56135 0.0025 0.678853 0.581437 2.14121 0.00736536 101 4 1 1.05793e-06 
-0.27256 -0.432332 -2.62769 0.0025 0.68425 0.587917 2.148 0.00730728 102 4 1 1.04294e-06 
-0.268921 -0.423565 -2.6476 0.0025 0.689714 0.594499 2.15485 0.00724938 103 4 1 1.00384e-06 
-0.265311 -0.414842 -2.67143 0.0025 0.695213 0.601144 2.1617 0.00719205 104 4 1 1.00106e-06 
-0.261729 -0.4061 -2.69503 0.0025 0.700741 0.607846 2.16856 0.00713531 105 4 1 9.72982e-07 
-0.258175 -0.397412 -2.70078 0.0025 0.706282 0.614585 2.1754 0.00707932 106 4 1 9.4389e-07 
-0.254649 -0.388792 -2.70611 0.0025 0.711822 0.621345 2.18221 0.00702423 107 4 1 9.38275e-07 
-0.251151 -0.380217 -2.71988 0.0025 0.717363 0.628127 2.18899 0.00696997 108 4 1 9.33882e-07 
-0.247679 -0.371675 -2.73265 0.0025 0.72291 0.634936 2.19575 0.00691649 109 4 1 8.8487e-07 
-0.244234 -0.363216 -2.71141 0.0025 0.728438 0.641743 2.20245 0.006864 110 4 1 8.83386e-07 
-0.240815 -0.354852 -2.73614 0.0025 0.733953 0.648556 2.2091 0.00681242 111 4 1 8.92803e-07 
-0.237422 -0.346478 -2.74131 0.0025 0.739474 0.655395 2.21573 0.00676156 112 4 1 8.3864e-07 
-0.234054 -0.338234 -2.72211 0.0025 0.74497 0.662225 2.22231 0.00671168 113 4 1 8.26812e-07 
-0.23071 -0.330076 -2.72859 0.0025 0.750444 0.669048 2.22882 0.00666272 114 4 1 8.51544e-07 
-0.227391 -0.32193 -2.75119 0.0025 0.755924 0.675897 2.23532 0.00661442 115 4 1 8.44442e-07 
-0.224096 -0.313831 -2.75942 0.0025 0.761411 0.682775 2.24179 0.00656675 116 4 1 7.85787e-07 
-0.220824 -0.305816 -2.73068 0.0025 0.766871 0.689639 2.24821 0.00652 117 4 1 7.74155e-07 
-0.217575 -0.297914 -2.74122 0.0025 0.772306 0.696492 2.25457 0.00647412 118 4 1 8.29344e-07 
-0.21435 -0.289983 -2.78602 0.0025 0.777763 0.703391 2.26093 0.00642869 119 4 1 7.74984e-07 
-0.211147 -0.282091 -2.74933 0.0025 0.783212 0.710297 2.26725 0.00638397 120 4 1 6.99734e-07 
-0.207966 -0.2744 -2.72179 0.0025 0.788603 0.717154 2.27348 0.00634032 121 4 1 7.6421e-07 
-0.204806 -0.266701 -2.77258 0.0025 0.793998 0.724033 2.27969 0.00629725 122 4 1 7.98297e-07 
-0.201668 -0.258966 -2.79409 0.0025 0.799429 0.730973 2.28591 0.00625446 123 4 1 7.17169e-07 
-0.198552 -0.25132 -2.75825 0.0025 0.804838 0.737906 2.29209 0.00621243 124 4 1 6.74733e-07 
-0.195456 -0.243815 -2.74522 0.0025 0.810202 0.744802 2.29818 0.0061713 125 4 1 7.29674e-07 
-0.19238 -0.23633 -2.7876 0.0025 0.815572 0.751723 2.30426 0.00613066 126 4 1 7.39897e-07 
-0.189325 -0.228828 -2.79649 0.0025 0.820965 0.758689 2.31035 0.0060904 127 4 1 6.83518e-07 
-0.18629 -0.221379 -2.78035 0.0025 0.826338 0.765648 2.31638 0.00605079 128 4 1 6.19811e-07 
-0.183274 -0.21409 -2.73174 0.0025 0.831654 0.772554 2.32233 0.00601211 129 4 1 6.64568e-07 
-0.180278 -0.206859 -2.78021 0.0025 0.836959 0.779464 2.32824 0.00597401 130 4 1 7.32942e-07 
-0.1773 -0.199555 -2.82177 0.0025 0.842313 0.786453 2.33419 0.00593603 131 4 1 6.83261e-07 
-0.174342 -0.192256 -2.81355 0.0025 0.847678 0.793471 2.34013 0.00589846 132 4 1 5.77931e-07 
-0.171402 -0.185134 -2.74134 0.0025 0.852976 0.800422 2.34596 0.00586183 133 4 1 5.82707e-07 
-0.16848 -0.178147 -2.75521 0.0025 0.858224 0.80733 2.35172 0.00582599 134 4 1 7.13894e-07 
-0.165576 -0.171052 -2.85286 0.0025 0.863535 0.814333 2.35754 0.00579015 135 4 1 6.93309e-07 
-0.16269 -0.163883 -2.84571 0.0025 0.868893 0.821408 2.36338 0.00575445 136 4 1 5.14505e-07 
-0.159821 -0.15693 -2.73252 0.0025 0.874155 0.82838 2.36909 0.00571981 137 4 1 4.82174e-07 
-0.15697 -0.150223 -2.70608 0.0025 0.879313 0.835239 2.37467 0.00568626 138 4 1 6.81092e-07 
-0.154135 -0.143408 -2.85271 0.0025 0.884542 0.842204 2.38031 0.00565264 139 4 1 7.48383e-07 
-0.151317 -0.136357 -2.90805 0.0025 0.889895 0.84934 2.38606 0.00561864 140 4 1 5.28147e-07 
-0.148516 -0.129463 -2.77715 0.0025 0.895185 0.85641 2.39173 0.00558544 141 4 1 3.84299e-07 
-0.145732 -0.122925 -2.67127 0.0025 0.900306 0.863283 2.39718 0.00555367 142 4 1 5.71437e-07 
-0.142962 -0.116415 -2.80127 0.0025 0.905432 0.870181 2.40263 0.00552223 143 4 1 7.718e-07 
-0.140209 -0.109569 -2.9532 0.0025 0.910734 0.877317 2.40826 0.00549008 144 4 1 5.94632e-07 
-0.137472 -0.102729 -2.84845 0.0025 0.916053 0.884488 2.41388 0.0054582 145 4 1 3.10115e-07 
-0.134751 -0.0962825 -2.6499 0.0025 0.921156 0.891395 2.41924 0.00542796 146 4 1 3.91799e-07 
-0.132044 -0.0901317 -2.68352 0.0025 0.926135 0.89816 2.42445 0.00539878 147 4 1 6.92277e-07 
-0.129352 -0.0836863 -2.8906 0.0025 0.931263 0.905133 2.42982 0.00536905 148 4 1 7.23002e-07 
-0.126675 -0.0769869 -2.94741 0.0025 0.936559 0.912337 2.43534 0.00533869 149 4 1 4.32962e-07 
-0.124013 -0.0704561 -2.76752 0.0025 0.941762 0.919433 2.44075 0.00530919 150 4 1 2.71357e-07 
-0.121366 -0.0643638 -2.63763 0.0025 0.946745 0.926256 2.4459 0.00528126 151 4 1 4.48469e-07 
-0.118732 -0.0583364 -2.72732 0.0025 0.951687 0.933042 2.45099 0.00525383 152 4 1 6.82665e-07 
-0.116112 -0.0520422 -2.91665 0.0025 0.956801 0.94007 2.45625 0.00522574 153 4 1 6.47438e-07 
-0.113506 -0.0455105 -2.94527 0.0025 0.962036 0.947264 2.46163 0.00519731 154 4 1 2.36607e-07 
-0.110915 -0.0393663 -2.59552 0.0025 0.967038 0.954154 2.46674 0.00517043 155 4 1 1.09174e-08 
-0.108336 -0.033943 -2.35653 0.0025 0.971656 0.96056 2.47142 0.00514585 156 4 1 6.57851e-07 
-0.105769 -0.0283474 -2.92024 0.0025 0.976467 0.967253 2.47631 0.0051205 157 4 1 1.19545e-06 
-0.103215 -0.0214294 -3.39514 0.0025 0.981878 0.974721 2.48184 0.00509228 158 4 1 -2.38454e-07 
-0.100677 -0.0153188 -2.0361 0.0025 0.986696 0.981375 2.48669 0.00506741 159 4 1 -1.02241e-06 
-0.098148 -0.0118992 -1.4041 0.0025 0.990293 0.986479 2.49023 0.00504901 160 4 1 1.6653e-06 
-0.0956276 -0.00664574 -3.83316 0.0025 0.995006 0.99312 2.495 0.00502509 161 4 1 2.44202e-06 
-0.0931228 0.00247537 -4.251 0.0025 1.00141 1.00192 2.50153 0.00499296 162 4 1 -1.98248e-06 
-0.0906345 0.00772847 -0.694481 0.0025 1.0057 1.00788 2.50576 0.00497164 163 4 1 -2.41628e-06 
-0.0881512 0.00800189 -0.122387 0.0025 1.00735 1.01037 2.50728 0.0049635 164 4 1 2.04237e-06 
-0.085671 0.0117838 -3.40945 0.0025 1.01066 1.01507 2.51061 0.00494728 165 4 1 2.57763e-06 
-0.0832039 0.0196412 -3.74709 0.0025 1.01615 1.02264 2.51617 0.00492054 166 4 1 -1.59351e-06 
-0.0807505 0.0243377 -0.860323 0.0025 1.01991 1.02788 2.51988 0.00490237 167 4 1 -2.58388e-06 
-0.0783015 0.0246878 0.22159 0.0025 1.02072 1.02907 2.52062 0.00489853 168 3 1 -9.0276e-07 
-0.0758519 0.0240801 0.363045 0.0025 1.02029 1.02851 2.52019 0.00490058 169 4 1 -2.05173e-07 
-0.0734009 0.0232775 0.404919 0.0025 1.01957 1.0275 2.51948 0.00490403 170 4 1 -1.6742e-07 
-0.0709479 0.0222705 0.516194 0.0025 1.01863 1.02618 2.51856 0.00490853 171 4 1 -2.05355e-07 
-0.0684924 0.0209561 0.677101 0.0025 1.01744 1.0245 2.51737 0.0049143 172 4 1 -1.92741e-07 
-0.0660336 0.0193153 0.83368 0.0025 1.01599 1.02245 2.51593 0.00492131 173 4 1 -1.28388e-07 
-0.063571 0.0174129 0.948473 0.0025 1.01434 1.02014 2.5143 0.0049293 174 4 1 -4.13114e-08 
-0.0611043 0.0153558 1.00693 0.0025 1.01259 1.01768 2.51256 0.00493783 175 4 1 4.2571e-08 
-0.0586332 0.0132568 1.01094 0.0025 1.01083 1.0152 2.5108 0.00494645 176 4 1 1.09239e-07 
-0.0561578 0.0112137 0.970314 0.0025 1.00912 1.0128 2.5091 0.0049548 177 4 1 1.54346e-07 
-0.0536784 0.00930108 0.897295 0.0025 1.00754 1.01058 2.50752 0.00496258 178 4 1 1.79122e-07 
-0.0511953 0.00756907 0.803777 0.0025 1.00612 1.00858 2.5061 0.0049696 179 4 1 1.8723e-07 
-0.0487088 0.00604571 0.70003 0.0025 1.00487 1.00683 2.50486 0.00497576 180 4 1 1.8296e-07 
-0.0462195 0.0047408 0.594251 0.0025 1.00381 1.00534 2.5038 0.00498103 181 4 1 1.70311e-07 
-0.0437278 0.00365006 0.49253 0.0025 1.00292 1.0041 2.50292 0.00498542 182 4 1 1.52626e-07 
-0.0412341 0.00275928 0.399017 0.0025 1.00221 1.0031 2.5022 0.004989 183 4 1 1.32508e-07 
-0.0387388 0.00204789 0.316202 0.0025 1.00163 1.00229 2.50163 0.00499185 184 4 1 1.11873e-07 
-0.0362422 0.00149203 0.245216 0.0025 1.00119 1.00167 2.50119 0.00499407 185 4 1 9.20618e-08 
-0.0337447 0.00106691 0.186149 0.0025 1.00085 1.00119 2.50085 0.00499577 186 4 1 7.39422e-08 
-0.0312465 0.000748632 0.138344 0.0025 1.00059 1.00083 2.50059 0.00499703 187 4 1 5.801e-08 
-0.0287477 0.000515327 0.100662 0.0025 1.00041 1.00057 2.50041 0.00499796 188 4 1 4.44726e-08 
-0.0262485 0.00034789 0.0717058 0.0025 1.00028 1.00039 2.50027 0.00499862 189 4 1 3.33231e-08 
-0.0237491 0.000230247 0.0500015 0.0025 1.00018 1.00026 2.50018 0.00499909 190 4 1 2.44056e-08 
-0.0212494 0.000149337 0.0341247 0.0025 1.00012 1.00017 2.50012 0.00499941 191 4 1 1.7471e-08 
-0.0187496 9.48742e-05 0.0227872 0.0025 1.00007 1.00011 2.50007 0.00499963 192 4 1 1.22239e-08 
-0.0162498 5.90028e-05 0.0148817 0.0025 1.00005 1.00007 2.50005 0.00499977 193 4 1 8.35969e-09 
-0.0137499 3.58872e-05 0.0094968 0.0025 1.00003 1.00004 2.50003 0.00499986 194 4 1 5.59037e-09 
-0.0112499 2.13082e-05 0.00590982 0.0025 1.00002 1.00002 2.50002 0.00499992 195 4 1 3.66191e-09 
-0.00874996 1.22891e-05 0.00356528 0.0025 1.00001 1.00001 2.50001 0.00499995 196 4 1 2.36297e-09 
-0.00624998 6.77042e-06 0.00204617 0.0025 1.00001 1.00001 2.50001 0.00499997 197 4 1 1.52793e-09 
-0.00374999 3.33789e-06 0.00104221 0.0025 1 1 2.5 0.00499998 198 4 1 1.03612e-09 
-0.00125 9.99533e-07 0.000317941 0.0025 1 1 2.5 0.00499999 199 4 1 8.09353e-10 
0.00125 -9.99533e-07 -0.000317941 0.0025 1 1 2.5 0.00499999 200 4 1 8.09353e-10 
0.00374999 -3.33789e-06 -0.00104221 0.0025 1 1 2.5 0.00499998 201 4 1 1.03612e-09 
0.00624998 -6.77042e-06 -0.00204617 0.0025 1.00001 1.00001 2.50001 0.00499997 202 4 1 1.52793e-09 
0.00874996 -1.22891e-05 -0.00356528 0.0025 1.00001 1.00001 2.50001 0.00499995 203 4 1 2.36297e-09 
0.0112499 -2.13082e-05 -0.00590982 0.0025 1.00002 1.00002 2.50002 0.00499992 204 4 1 3.66191e-09 
0.0137499 -3.58872e-05 -0.0094968 0.0025 1.00003 1.00004 2.50003 0.00499986 205 4 1 5.59037e-09 
0.0162498 -5.90028e-05 -0.0148817 0.0025 1.00005 1.00007 2.50005 0.00499977 206 4 1 8.35969e-09 
0.0187496 -9.48742e-05 -0.0227872 0.0025 1.00007 1.00011 2.50007 0.00499963 207 4 1 1.22239e-08 
0.0212494 -0.000149337 -0.0341247 0.0025 1.00012 1.00017 2.50012 0.00499941 208 4 1 1.7471e-08 
0.0237491 -0.000230247 -0.0500015 0.0025 1.00018 1.00026 2.50018 0.00499909 209 4 1 2.44056e-08 
0.0262485 -0.00034789 -0.0717058 0.0025 1.00028 1.00039 2.50027 0.00499862 210 4 1 3.33231e-08 
0.0287477 -0.000515327 -0.100662 0.0025 1.00041 1.00057 2.50041 0.00499796 211 4 1 4.44726e-08 
0.0312465 -0.000748632 -0.138344 0.0025 1.00059 1.00083 2.50059 0.00499703 212 4 1 5.801e-08 
