# Time [s]: 0.342498
# Columns: pos [m], vel [m/s], acc [m/s^2], mass [kg], dens [kg/m^3], pres [Pa], ene [J/kg], sml [m], id, neighbor, alpha, gradh, ...additional?
1.27169 -0.673087 0.000253064 0.0025 0.511053 0.43273 2.15251 0.00978372 0 4 1 -0.000134225 
1.27647 -0.673088 0.000262392 0.0025 0.53691 0.426192 1.95004 0.00931254 1 4 1 0.000179252 
1.28101 -0.673089 0.000272214 0.0025 0.54824 0.430862 1.9685 0.00912009 2 3 1 -1.90586e-05 
1.28559 -0.67309 0.000283477 0.0025 0.545975 0.429197 1.96465 0.00915793 3 5 1 3.48573e-06 
1.29017 -0.673091 0.000296759 0.0025 0.546373 0.429352 1.96458 0.00915126 4 4 1 -1.38708e-07 
1.29474 -0.673092 0.000312626 0.0025 0.546383 0.429322 1.96435 0.00915109 5 4 1 1.43696e-07 
1.29932 -0.673094 0.000330948 0.0025 0.546406 0.42932 1.96429 0.00915071 6 4 1 -3.55011e-09 
1.3039 -0.673095 0.000350869 0.0025 0.546419 0.429317 1.96423 0.00915049 7 4 1 8.19257e-09 
1.30847 -0.673097 0.00037147 0.0025 0.546432 0.429316 1.96417 0.00915026 8 4 1 4.72081e-09 
1.31305 -0.673098 0.000392634 0.0025 0.546444 0.429314 1.96413 0.00915006 9 4 1 5.4316e-09 
1.31762 -0.6731 0.00041533 0.0025 0.546455 0.429314 1.96408 0.00914988 10 4 1 -2.28768e-09 
1.3222 -0.673102 0.000440854 0.0025 0.546465 0.429312 1.96404 0.00914971 11 4 1 4.67388e-09 
1.32677 -0.673105 0.000469527 0.0025 0.546475 0.429311 1.964 0.00914955 12 4 1 2.78917e-09 
1.33135 -0.673107 0.000500037 0.0025 0.546483 0.42931 1.96397 0.00914941 13 4 1 3.50624e-09 
1.33592 -0.673109 0.000530336 0.0025 0.54649 0.429309 1.96393 0.0091493 14 4 1 2.05544e-09 
1.34049 -0.673112 0.00055973 0.0025 0.546497 0.429307 1.96391 0.00914919 15 4 1 -1.64312e-09 
1.34507 -0.673115 0.000590455 0.0025 0.546503 0.429306 1.96388 0.00914908 16 4 1 4.83922e-09 
1.34964 -0.673118 0.000626976 0.0025 0.546508 0.429304 1.96385 0.009149 17 4 1 1.40714e-09 
1.35422 -0.673121 0.000672945 0.0025 0.546512 0.429302 1.96383 0.00914892 18 4 1 -1.28679e-09 
1.35879 -0.673124 0.000727977 0.0025 0.546517 0.4293 1.9638 0.00914885 19 4 1 2.59043e-09 
1.36337 -0.673128 0.000787156 0.0025 0.54652 0.429299 1.96378 0.00914879 20 4 1 1.05516e-09 
1.36794 -0.673132 0.000844291 0.0025 0.546523 0.429296 1.96376 0.00914874 21 4 1 1.08528e-09 
1.37252 -0.673136 0.000896817 0.0025 0.546526 0.429294 1.96374 0.0091487 22 4 1 9.63419e-10 
1.37709 -0.673141 0.000948536 0.0025 0.546528 0.429292 1.96372 0.00914866 23 4 1 -2.62596e-10 
1.38166 -0.673146 0.00100782 0.0025 0.54653 0.429289 1.9637 0.00914864 24 4 1 1.37201e-09 
1.38624 -0.673151 0.00108238 0.0025 0.546531 0.429286 1.96369 0.00914862 25 4 1 5.99577e-10 
1.39081 -0.673157 0.00117452 0.0025 0.546532 0.429283 1.96367 0.0091486 26 4 1 -5.3421e-10 
1.39539 -0.673163 0.00128002 0.0025 0.546532 0.42928 1.96366 0.0091486 27 3 1 1.02189e-09 
1.39996 -0.673169 0.00139137 0.0025 0.546532 0.429277 1.96364 0.0091486 28 4 1 6.50657e-10 
1.40454 -0.673176 0.00150242 0.0025 0.546531 0.429273 1.96363 0.00914861 29 4 1 -9.86924e-10 
1.40911 -0.673184 0.00161167 0.0025 0.54653 0.429269 1.96361 0.00914862 30 4 1 2.79118e-10 
1.41368 -0.673192 0.00172266 0.0025 0.546529 0.429265 1.96359 0.00914865 31 4 1 1.72155e-09 
1.41826 -0.673201 0.00184211 0.0025 0.546527 0.42926 1.96358 0.00914868 32 4 1 -1.13845e-09 
1.42283 -0.67321 0.00197622 0.0025 0.546525 0.429255 1.96357 0.00914872 33 4 1 -1.15647e-09 
1.42741 -0.673221 0.00212479 0.0025 0.546522 0.42925 1.96355 0.00914876 34 4 1 1.74924e-09 
1.43198 -0.673232 0.00227479 0.0025 0.546519 0.429244 1.96354 0.00914882 35 4 1 -5.76477e-10 
1.43656 -0.673245 0.00239974 0.0025 0.546515 0.429238 1.96352 0.00914888 36 4 1 -1.17993e-09 
1.44113 -0.673258 0.00247298 0.0025 0.546511 0.429231 1.96351 0.00914895 37 4 1 1.24548e-09 
1.44571 -0.673274 0.00249408 0.0025 0.546507 0.429224 1.96349 0.00914902 38 4 1 1.68003e-11 
1.45028 -0.673292 0.00251113 0.0025 0.546502 0.429217 1.96348 0.0091491 39 4 1 -8.34447e-10 
1.45485 -0.673313 0.00261353 0.0025 0.546497 0.42921 1.96346 0.00914918 40 4 1 3.68783e-10 
1.45943 -0.673336 0.00288903 0.0025 0.546492 0.429203 1.96345 0.00914927 41 4 1 -3.4272e-10 
1.464 -0.67336 0.00337402 0.0025 0.546485 0.429194 1.96343 0.00914938 42 4 1 -1.93486e-09 
1.46858 -0.673386 0.00403981 0.0025 0.546478 0.429184 1.96341 0.0091495 43 4 1 -1.78414e-09 
1.47315 -0.673414 0.00482457 0.0025 0.546469 0.429173 1.96339 0.00914965 44 4 1 -1.14883e-09 
1.47773 -0.673442 0.00567546 0.0025 0.546458 0.429159 1.96337 0.00914984 45 4 1 -2.70222e-09 
1.4823 -0.673472 0.00656313 0.0025 0.546444 0.429143 1.96335 0.00915006 46 4 1 -3.19245e-09 
1.48688 -0.673503 0.00747255 0.0025 0.546429 0.429125 1.96332 0.00915032 47 4 1 -1.98354e-09 
1.49145 -0.673538 0.0083999 0.0025 0.546411 0.429104 1.96329 0.00915062 48 4 1 -2.40331e-09 
1.49603 -0.673576 0.00936585 0.0025 0.546391 0.429081 1.96325 0.00915096 49 4 1 -3.4587e-09 
-0.499396 -0.673618 0.0104242 0.0025 0.546368 0.429055 1.96321 0.00915134 50 4 1 -3.44666e-09 
-0.49482 -0.673666 0.0116414 0.0025 0.546342 0.429026 1.96317 0.00915177 51 4 1 -2.9563e-09 
-0.490244 -0.673719 0.0130514 0.0025 0.546313 0.428993 1.96313 0.00915225 52 4 1 -4.19267e-09 
-0.485668 -0.673779 0.0146338 0.0025 0.546281 0.428956 1.96308 0.0091528 53 4 1 -5.41004e-09 
-0.481091 -0.673846 0.0163522 0.0025 0.546244 0.428915 1.96302 0.00915341 54 4 1 -4.96113e-09 
-0.476514 -0.673922 0.0182178 0.0025 0.546204 0.428869 1.96296 0.0091541 55 4 1 -4.76061e-09 
-0.471937 -0.674007 0.0203 0.0025 0.546158 0.428818 1.96289 0.00915486 56 4 1 -6.27687e-09 
-0.46736 -0.674103 0.0226544 0.0025 0.546107 0.428761 1.96281 0.00915571 57 4 1 -7.14781e-09 
-0.462781 -0.674208 0.0252219 0.0025 0.546051 0.428698 1.96272 0.00915666 58 4 1 -6.10524e-09 
-0.458203 -0.674325 0.0278 0.0025 0.545989 0.428629 1.96263 0.0091577 59 4 1 -5.93719e-09 
-0.453624 -0.674451 0.0301314 0.0025 0.545921 0.428554 1.96253 0.00915884 60 4 1 -5.44013e-09 
-0.449044 -0.674588 0.0320178 0.0025 0.545849 0.428474 1.96242 0.00916004 61 4 1 -3.42035e-09 
-0.444464 -0.674733 0.0333924 0.0025 0.545774 0.428391 1.96231 0.0091613 62 4 1 -5.64152e-10 
-0.439883 -0.674883 0.0342247 0.0025 0.545698 0.428307 1.9622 0.00916258 63 4 1 1.69336e-09 
-0.435301 -0.675031 0.0342087 0.0025 0.545623 0.428224 1.96209 0.00916384 64 4 1 4.93216e-09 
-0.430719 -0.67517 0.032455 0.0025 0.545552 0.428146 1.96198 0.00916503 65 4 1 1.10243e-08 
-0.426136 -0.675294 0.0278317 0.0025 0.54549 0.428077 1.96189 0.00916607 66 4 1 1.82299e-08 
-0.421553 -0.675399 0.0212207 0.0025 0.545443 0.428025 1.96182 0.00916687 67 4 1 2.52983e-08 
-0.416969 -0.675471 0.0122465 0.0025 0.545416 0.427995 1.96178 0.00916731 68 4 1 2.23572e-08 
-0.412385 -0.675491 0.00451507 0.0025 0.545409 0.427987 1.96176 0.00916743 69 5 1 3.02053e-08 
-0.407802 -0.675516 0.00166542 0.0025 0.545428 0.428012 1.96179 0.00916711 70 4 1 1.62328e-07 
-0.403218 -0.675259 -0.113092 0.0025 0.545581 0.428184 1.96201 0.00916454 71 4 1 2.80792e-07 
-0.398637 -0.674535 -0.208296 0.0025 0.54596 0.428601 1.96255 0.00915819 72 4 1 3.14484e-07 
-0.39406 -0.67339 -0.310103 0.0025 0.546585 0.429295 1.96344 0.0091477 73 4 1 5.07419e-07 
-0.38949 -0.671612 -0.523773 0.0025 0.54759 0.430411 1.96488 0.00913091 74 4 1 8.90342e-07 
-0.384929 -0.668564 -0.883856 0.0025 0.549216 0.432207 1.96721 0.00910388 75 4 1 1.15742e-06 
-0.380386 -0.663997 -1.21093 0.0025 0.551569 0.434795 1.97058 0.00906505 76 4 1 1.15963e-06 
-0.375864 -0.658285 -1.44254 0.0025 0.554531 0.438061 1.97481 0.00901662 77 4 1 1.07404e-06 
-0.371369 -0.651792 -1.5933 0.0025 0.557936 0.441827 1.97965 0.0089616 78 4 1 1.08564e-06 
-0.366902 -0.644705 -1.75005 0.0025 0.561701 0.446006 1.98498 0.00890154 79 4 1 1.21918e-06 
-0.362467 -0.636984 -1.92483 0.0025 0.565832 0.450607 1.9908 0.00883654 80 4 1 1.38439e-06 
-0.358066 -0.628578 -2.11611 0.0025 0.570352 0.455655 1.99715 0.00876651 81 4 1 1.51654e-06 
-0.353701 -0.619487 -2.29449 0.0025 0.575254 0.461144 2.00399 0.00869181 82 4 1 1.54549e-06 
-0.349374 -0.609872 -2.42206 0.0025 0.580469 0.467002 2.01124 0.00861372 83 4 1 1.50002e-06 
-0.345087 -0.599908 -2.50841 0.0025 0.585899 0.473124 2.01875 0.0085339 84 4 1 1.38821e-06 
-0.34084 -0.589867 -2.52988 0.0025 0.591432 0.479386 2.02635 0.00845406 85 4 1 1.25717e-06 
-0.336632 -0.579899 -2.52363 0.0025 0.596973 0.485683 2.03392 0.00837559 86 4 1 1.1652e-06 
-0.332464 -0.570085 -2.50486 0.0025 0.602475 0.491959 2.0414 0.00829911 87 4 1 1.09529e-06 
-0.328333 -0.560462 -2.48192 0.0025 0.607913 0.498186 2.04875 0.00822486 88 4 1 1.03028e-06 
-0.324239 -0.551036 -2.45041 0.0025 0.613275 0.504347 2.05595 0.00815295 89 4 1 9.56743e-07 
-0.32018 -0.541866 -2.40691 0.0025 0.618543 0.510423 2.063 0.00808351 90 4 1 9.33102e-07 
-0.316155 -0.532883 -2.3938 0.0025 0.623732 0.516427 2.0699 0.00801627 91 4 1 9.02882e-07 
-0.312164 -0.524082 -2.36068 0.0025 0.628851 0.52237 2.07668 0.00795101 92 4 1 8.53894e-07 
-0.308204 -0.51547 -2.33347 0.0025 0.633894 0.528244 2.08332 0.00788776 93 4 1 8.46887e-07 
-0.304276 -0.50701 -2.32144 0.0025 0.638879 0.53407 2.08986 0.00782621 94 4 1 8.41936e-07 
-0.300378 -0.498658 -2.3108 0.0025 0.643826 0.539869 2.09632 0.00776608 95 4 1 8.47548e-07 
-0.29651 -0.490407 -2.31576 0.0025 0.648753 0.545663 2.10272 0.00770709 96 4 1 8.7749e-07 
-0.292671 -0.482174 -2.33693 0.0025 0.653691 0.551488 2.10911 0.00764887 97 4 1 9.00544e-07 
-0.288861 -0.473953 -2.35955 0.0025 0.658662 0.557368 2.1155 0.00759115 98 4 1 9.35484e-07 
-0.285079 -0.465704 -2.40262 0.0025 0.663688 0.563333 2.12195 0.00753366 99 4 1 1.00461e-06 
-0.281327 -0.457308 -2.47395 0.0025 0.668808 0.569427 2.12848 0.00747598 100 4 1 1.00851e-06 
-0.277603 -0.448825 -2.50303 0.0025 0.674015 0.575642 2.13509 0.00741823 101 4 1 9.88976e-07 
-0.273908 -0.440316 -2.53998 0.0025 0.679282 0.581951 2.14175 0.00736071 102 4 1 1.04013e-06 
-0.270242 -0.431695 -2.60858 0.0025 0.684635 0.58838 2.14849 0.00730316 103 4 1 1.0248e-06 
-0.266605 -0.423016 -2.62446 0.0025 0.690055 0.59491 2.15527 0.00724579 104 4 1 9.88789e-07 
-0.262996 -0.414367 -2.65281 0.0025 0.695509 0.601503 2.16207 0.00718898 105 4 1 9.84739e-07 
-0.259416 -0.405715 -2.67219 0.0025 0.700993 0.608152 2.16887 0.00713274 106 4 1 9.50269e-07 
-0.255864 -0.397104 -2.67618 0.0025 0.706485 0.614833 2.17565 0.00707729 107 4 1 9.24591e-07 
-0.252339 -0.388558 -2.68115 0.0025 0.711974 0.62153 2.1824 0.00702273 108 4 1 9.19494e-07 
-0.248841 -0.380065 -2.6935 0.0025 0.717463 0.628249 2.18911 0.006969 109 4 1 9.19389e-07 
-0.24537 -0.371591 -2.70985 0.0025 0.72296 0.634996 2.19581 0.00691601 110 4 1 8.68347e-07 
-0.241925 -0.363214 -2.68497 0.0025 0.728437 0.641742 2.20245 0.00686401 111 4 1 8.68504e-07 
-0.238505 -0.354922 -2.71354 0.0025 0.733903 0.648494 2.20904 0.00681289 112 4 1 8.78757e-07 
-0.235112 -0.346633 -2.71561 0.0025 0.739375 0.655272 2.21561 0.00676246 113 4 1 8.22796e-07 
-0.231743 -0.338447 -2.69809 0.0025 0.744822 0.662041 2.22213 0.00671301 114 4 1 8.16291e-07 
-0.228399 -0.330366 -2.70719 0.0025 0.75025 0.668805 2.22859 0.00666445 115 4 1 8.32193e-07 
-0.225078 -0.322306 -2.7214 0.0025 0.75568 0.675591 2.23503 0.00661656 116 4 1 8.29003e-07 
-0.221782 -0.314267 -2.73612 0.0025 0.761116 0.682404 2.24145 0.0065693 117 4 1 7.79678e-07 
-0.218509 -0.306311 -2.70937 0.0025 0.766531 0.68921 2.24781 0.00652289 118 4 1 7.54058e-07 
-0.215259 -0.298482 -2.7107 0.0025 0.771915 0.695999 2.25411 0.0064774 119 4 1 8.12185e-07 
-0.212031 -0.290633 -2.76007 0.0025 0.77732 0.70283 2.26041 0.00643236 120 4 1 7.71173e-07 
-0.208827 -0.282789 -2.72896 0.0025 0.782723 0.709677 2.26668 0.00638795 121 4 1 6.90318e-07 
-0.205643 -0.275142 -2.69882 0.0025 0.788071 0.716476 2.27286 0.0063446 122 4 1 7.39474e-07 
-0.202482 -0.267533 -2.73771 0.0025 0.793413 0.723286 2.27901 0.00630189 123 4 1 7.8681e-07 
-0.199341 -0.259876 -2.77171 0.0025 0.798792 0.730159 2.28518 0.00625945 124 4 1 7.24798e-07 
-0.196222 -0.252277 -2.74536 0.0025 0.804165 0.737041 2.29132 0.00621763 125 4 1 6.58677e-07 
-0.193124 -0.244825 -2.71616 0.0025 0.809487 0.743881 2.29737 0.00617675 126 4 1 6.97357e-07 
-0.190045 -0.237405 -2.75024 0.0025 0.814799 0.750725 2.30339 0.00613648 127 4 1 7.30199e-07 
-0.186987 -0.22998 -2.77097 0.0025 0.820136 0.757617 2.30941 0.00609655 128 4 1 6.93215e-07 
-0.183949 -0.22257 -2.76725 0.0025 0.825471 0.764524 2.31541 0.00605715 129 4 1 6.16285e-07 
-0.18093 -0.215316 -2.71222 0.0025 0.830753 0.771382 2.32132 0.00601863 130 4 1 6.32023e-07 
-0.17793 -0.208153 -2.74001 0.0025 0.836005 0.778221 2.32718 0.00598082 131 4 1 7.10183e-07 
-0.174949 -0.20095 -2.78863 0.0025 0.841298 0.785127 2.33306 0.0059432 132 4 1 6.94373e-07 
-0.171987 -0.193699 -2.79983 0.0025 0.84662 0.792085 2.33896 0.00590584 133 4 1 5.91814e-07 
-0.169043 -0.186574 -2.73493 0.0025 0.851893 0.798999 2.34477 0.00586928 134 4 1 5.50738e-07 
-0.166118 -0.17964 -2.71273 0.0025 0.857096 0.805843 2.35049 0.00583365 135 4 1 6.65793e-07 
-0.16321 -0.172668 -2.80019 0.0025 0.862332 0.812746 2.35622 0.00579823 136 4 1 7.12406e-07 
-0.160319 -0.165567 -2.83959 0.0025 0.86764 0.819753 2.36201 0.00576276 137 4 1 5.64219e-07 
-0.157447 -0.158578 -2.75003 0.0025 0.872901 0.826715 2.36773 0.00572803 138 4 1 4.48548e-07 
-0.154591 -0.151876 -2.6654 0.0025 0.878032 0.833531 2.37328 0.00569456 139 4 1 5.9146e-07 
-0.151752 -0.145208 -2.77026 0.0025 0.883166 0.84037 2.37882 0.00566145 140 4 1 7.49047e-07 
-0.14893 -0.138286 -2.88449 0.0025 0.888438 0.847397 2.3845 0.00562785 141 4 1 6.17438e-07 
-0.146124 -0.131349 -2.81826 0.0025 0.893731 0.854464 2.39017 0.00559452 142 4 1 3.95775e-07 
-0.143335 -0.124743 -2.66612 0.0025 0.898865 0.861346 2.39565 0.00556257 143 4 1 4.54984e-07 
-0.140562 -0.118357 -2.70007 0.0025 0.90391 0.868131 2.40102 0.00553152 144 4 1 7.09706e-07 
-0.137804 -0.111703 -2.88484 0.0025 0.90909 0.875105 2.40651 0.00550001 145 4 1 7.01775e-07 
-0.135062 -0.104875 -2.89955 0.0025 0.91439 0.882244 2.41212 0.00546813 146 4 1 4.00359e-07 
-0.132335 -0.0982884 -2.70067 0.0025 0.919553 0.889221 2.41756 0.00543743 147 4 1 2.95608e-07 
-0.129624 -0.0921448 -2.60834 0.0025 0.924507 0.895944 2.42275 0.00540829 148 4 1 5.51389e-07 
-0.126927 -0.0859221 -2.76919 0.0025 0.929495 0.902728 2.42797 0.00537927 149 4 1 7.49718e-07 
-0.124245 -0.0793718 -2.92988 0.0025 0.934688 0.909792 2.43339 0.00534938 150 4 1 5.73463e-07 
-0.121578 -0.0727557 -2.84212 0.0025 0.939922 0.91692 2.43884 0.00531959 151 4 1 2.98184e-07 
-0.118925 -0.0665336 -2.65267 0.0025 0.944957 0.923804 2.44405 0.00529125 152 4 1 3.26917e-07 
-0.116286 -0.0605771 -2.6377 0.0025 0.949841 0.930505 2.44909 0.00526404 153 4 1 5.62441e-07 
-0.113661 -0.054518 -2.78541 0.0025 0.954803 0.937323 2.4542 0.00523668 154 4 1 7.05227e-07 
-0.11105 -0.0481315 -2.95117 0.0025 0.959957 0.944408 2.4595 0.00520857 155 4 1 4.88783e-07 
-0.108452 -0.0417662 -2.80464 0.0025 0.965095 0.951475 2.46476 0.00518084 156 4 1 4.68091e-08 
-0.105869 -0.0359995 -2.39961 0.0025 0.969858 0.958055 2.46961 0.00515539 157 4 1 1.38266e-07 
-0.103297 -0.0308101 -2.42317 0.0025 0.974377 0.964345 2.47418 0.00513148 158 4 1 1.0752e-06 
-0.100737 -0.0246977 -3.29952 0.0025 0.979435 0.971365 2.47934 0.00510499 159 4 1 8.45256e-07 
-0.098192 -0.0176377 -3.0088 0.0025 0.984801 0.978751 2.4848 0.00507717 160 4 1 -1.03503e-06 
-0.09566 -0.0128857 -1.3222 0.0025 0.98892 0.984492 2.48889 0.00505602 161 4 1 -2.20571e-07 
-0.093136 -0.00967165 -2.15818 0.0025 0.992531 0.989653 2.49247 0.00503763 162 4 1 2.79517e-06 
-0.0906224 -0.00230035 -4.67888 0.0025 0.998196 0.997532 2.49825 0.00500904 163 4 1 7.655e-07 
-0.0881269 0.00611775 -2.79075 0.0025 1.00416 1.00571 2.50427 0.00497929 164 4 1 -3.07136e-06 
-0.0856431 0.00855239 0.229915 0.0025 1.00695 1.00968 2.50694 0.0049655 165 4 1 -7.14666e-07 
-0.0831614 0.00929256 -1.36222 0.0025 1.00872 1.01235 2.50864 0.00495676 166 4 1 3.06177e-06 
-0.0806863 0.0152165 -4.08526 0.0025 1.01313 1.0185 2.51313 0.00493518 167 4 1 9.56689e-07 
-0.0782261 0.0225112 -2.59606 0.0025 1.01827 1.02558 2.51828 0.00491027 168 4 1 -2.60243e-06 
-0.075776 0.0248442 -0.0842536 0.0025 1.02061 1.02887 2.52054 0.00489905 169 3 1 -1.93227e-06 
-0.0733271 0.0244832 0.365257 0.0025 1.02058 1.02891 2.52048 0.00489917 170 4 1 -4.38421e-07 
-0.0708768 0.0236738 0.422032 0.0025 1.01992 1.028 2.51982 0.00490235 171 4 1 -1.54297e-07 
-0.0684247 0.022711 0.484263 0.0025 1.01905 1.02677 2.51896 0.00490654 172 4 1 -1.59378e-07 
-0.0659703 0.0215284 0.602508 0.0025 1.01797 1.02524 2.5179 0.00491174 173 4 1 -1.81701e-07 
-0.063513 0.0200559 0.74981 0.0025 1.01665 1.02339 2.51659 0.00491811 174 4 1 -1.53202e-07 
-0.0610522 0.0183028 0.880821 0.0025 1.01512 1.02123 2.51507 0.00492554 175 4 1 -8.46911e-08 
-0.0585875 0.0163442 0.967391 0.0025 1.01344 1.01886 2.5134 0.00493371 176 4 1 -2.63248e-09 
-0.0561185 0.0142844 1.00057 0.0025 1.01169 1.01641 2.51166 0.00494222 177 4 1 7.19095e-08 
-0.0536452 0.0122272 0.984534 0.0025 1.00997 1.01399 2.50995 0.00495065 178 4 1 1.28283e-07 
-0.0511678 0.0102591 0.929639 0.0025 1.00833 1.01169 2.50832 0.00495868 179 4 1 1.64008e-07 
-0.0486866 0.00844312 0.847835 0.0025 1.00684 1.00959 2.50682 0.00496606 180 4 1 1.81151e-07 
-0.0462018 0.00681937 0.750274 0.0025 1.0055 1.00772 2.50549 0.00497263 181 4 1 1.83603e-07 
-0.0437139 0.00540739 0.646292 0.0025 1.00435 1.00611 2.50434 0.00497834 182 4 1 1.75532e-07 
-0.0412234 0.00421041 0.543118 0.0025 1.00338 1.00474 2.50337 0.00498316 183 4 1 1.60654e-07 
-0.0387308 0.00321952 0.445928 0.0025 1.00258 1.00362 2.50257 0.00498715 184 4 1 1.41982e-07 
-0.0362363 0.00241761 0.358072 0.0025 1.00193 1.00271 2.50193 0.00499036 185 4 1 1.21796e-07 
-0.0337404 0.00178268 0.281377 0.0025 1.00142 1.00199 2.50142 0.00499291 186 4 1 1.01735e-07 
-0.0312434 0.0012906 0.216466 0.0025 1.00103 1.00144 2.50102 0.00499487 187 4 1 8.29034e-08 
-0.0287455 0.000917185 0.163069 0.0025 1.00073 1.00102 2.50073 0.00499636 188 4 1 6.59825e-08 
-0.026247 0.000639691 0.120302 0.0025 1.00051 1.00071 2.50051 0.00499747 189 4 1 5.13229e-08 
-0.0237481 0.000437735 0.0869151 0.0025 1.00035 1.00049 2.50035 0.00499827 190 4 1 3.90269e-08 
-0.0212488 0.000293791 0.0614889 0.0025 1.00023 1.00033 2.50023 0.00499884 191 4 1 2.90175e-08 
-0.0187492 0.000193321 0.0425878 0.0025 1.00015 1.00021 2.50015 0.00499924 192 4 1 2.10986e-08 
-0.0162495 0.000124651 0.0288653 0.0025 1.0001 1.00014 2.5001 0.00499951 193 4 1 1.5006e-08 
-0.0137497 7.86819e-05 0.0191271 0.0025 1.00006 1.00009 2.50006 0.00499969 194 4 1 1.04484e-08 
-0.0112498 4.85181e-05 0.0123605 0.0025 1.00004 1.00005 2.50004 0.00499981 195 4 1 7.13963e-09 
-0.0087499 2.90549e-05 0.0077363 0.0025 1.00002 1.00003 2.50002 0.00499988 196 4 1 4.82122e-09 
-0.00624995 1.65818e-05 0.00459178 0.0025 1.00001 1.00002 2.50001 0.00499993 197 4 1 3.27674e-09 
-0.00374997 8.41375e-06 0.00240208 0.0025 1.00001 1.00001 2.50001 0.00499995 198 4 1 2.3402e-09 
-0.00124999 2.5618e-06 0.000743943 0.0025 1.00001 1.00001 2.50001 0.00499997 199 4 1 1.89989e-09 
0.00124999 -2.5618e-06 -0.000743943 0.0025 1.00001 1.00001 2.50001 0.00499997 200 4 1 1.89989e-09 
0.00374997 -8.41375e-06 -0.00240208 0.0025 1.00001 1.00001 2.50001 0.00499995 201 4 1 2.3402e-09 
0.00624995 -1.65818e-05 -0.00459178 0.0025 1.00001 1.00002 2.50001 0.00499993 202 4 1 3.27674e-09 
0.0087499 -2.90549e-05 -0.0077363 0.0025 1.00002 1.00003 2.50002 0.00499988 203 4 1 4.82122e-09 
0.0112498 -4.85181e-05 -0.0123605 0.0025 1.00004 1.00005 2.50004 0.00499981 204 4 1 7.13963e-09 
0.0137497 -7.86819e-05 -0.0191271 0.0025 1.00006 1.00009 2.50006 0.00499969 205 4 1 1.04484e-08 
0.0162495 -0.000124651 -0.0288653 0.0025 1.0001 1.00014 2.5001 0.00499951 206 4 1 1.5006e-08 
0.0187492 -0.000193321 -0.0425878 0.0025 1.00015 1.00021 2.50015 0.00499924 207 4 1 2.10986e-08 
0.0212488 -0.000293791 -0.0614889 0.0025 1.00023 1.00033 2.50023 0.00499884 208 4 1 2.90175e-08 
0.0237481 -0.000437735 -0.0869151 0.0025 1.00035 1.00049 2.50035 0.00499827 209 4 1 3.90269e-08 
0.026247 -0.000639691 -0.120302 0.0025 1.00051 1.00071 2.50051 0.00499747 210 4 1 5.13229e-08 
0.0287455 -0.000917185 -0.163069 0.0025 1.00073 1.00102 2.50073 0.00499636 211 4 1 6.59825e-08 
