# Time [s]: 0.346823
# Columns: pos [m], vel [m/s], acc [m/s^2], mass [kg], dens [kg/m^3], pres [Pa], ene [J/kg], sml [m], id, neighbor, alpha, gradh, ...additional?
1.26878 -0.673086 0.000234277 0.0025 0.511054 0.43273 2.15251 0.00978371 0 4 1 -0.000134225 
1.27356 -0.673087 0.000242653 0.0025 0.536911 0.426193 1.95004 0.00931253 1 4 1 0.000179253 
1.2781 -0.673088 0.000251792 0.0025 0.548241 0.430862 1.96851 0.00912008 2 3 1 -1.90586e-05 
1.28268 -0.673089 0.000262806 0.0025 0.545975 0.429198 1.96465 0.00915792 3 5 1 3.48572e-06 
1.28726 -0.67309 0.000276033 0.0025 0.546373 0.429353 1.96458 0.00915125 4 4 1 -1.38708e-07 
1.29183 -0.673091 0.000291359 0.0025 0.546384 0.429323 1.96435 0.00915107 5 4 1 1.43698e-07 
1.29641 -0.673092 0.000308126 0.0025 0.546407 0.429321 1.96429 0.00915069 6 4 1 -3.54582e-09 
1.30098 -0.673094 0.000325684 0.0025 0.54642 0.429318 1.96423 0.00915048 7 4 1 8.19845e-09 
1.30556 -0.673095 0.000344045 0.0025 0.546433 0.429317 1.96418 0.00915025 8 4 1 4.72621e-09 
1.31013 -0.673097 0.000364027 0.0025 0.546445 0.429315 1.96413 0.00915005 9 4 1 5.4348e-09 
1.31471 -0.673099 0.000386588 0.0025 0.546456 0.429315 1.96409 0.00914987 10 4 1 -2.28627e-09 
1.31928 -0.673101 0.000411792 0.0025 0.546466 0.429313 1.96404 0.00914969 11 4 1 4.67633e-09 
1.32386 -0.673103 0.000438383 0.0025 0.546476 0.429312 1.964 0.00914953 12 4 1 2.7958e-09 
1.32843 -0.673105 0.000464636 0.0025 0.546484 0.429311 1.96397 0.00914939 13 4 1 3.51741e-09 
1.33301 -0.673107 0.000490091 0.0025 0.546491 0.42931 1.96394 0.00914927 14 4 1 2.06736e-09 
1.33758 -0.67311 0.000516738 0.0025 0.546498 0.429309 1.96391 0.00914916 15 4 1 -1.63603e-09 
1.34216 -0.673112 0.000548286 0.0025 0.546504 0.429307 1.96388 0.00914906 16 4 1 4.83904e-09 
1.34673 -0.673115 0.000587592 0.0025 0.54651 0.429306 1.96385 0.00914897 17 4 1 1.40393e-09 
1.35131 -0.673118 0.000634107 0.0025 0.546514 0.429304 1.96383 0.00914889 18 4 1 -1.28384e-09 
1.35588 -0.673121 0.000683639 0.0025 0.546519 0.429302 1.9638 0.00914882 19 4 1 2.60712e-09 
1.36046 -0.673125 0.000731151 0.0025 0.546522 0.429301 1.96378 0.00914876 20 4 1 1.08487e-09 
1.36503 -0.673128 0.000774791 0.0025 0.546525 0.429299 1.96376 0.0091487 21 4 1 1.11805e-09 
1.3696 -0.673132 0.00081803 0.0025 0.546528 0.429297 1.96374 0.00914866 22 4 1 9.86353e-10 
1.37418 -0.673137 0.000868047 0.0025 0.54653 0.429294 1.96373 0.00914862 23 4 1 -2.56141e-10 
1.37875 -0.673141 0.00093136 0.0025 0.546532 0.429292 1.96371 0.00914859 24 4 1 1.36668e-09 
1.38333 -0.673146 0.00100981 0.0025 0.546534 0.429289 1.96369 0.00914857 25 4 1 5.95603e-10 
1.3879 -0.673152 0.00109969 0.0025 0.546534 0.429287 1.96368 0.00914855 26 4 1 -5.2367e-10 
1.39248 -0.673157 0.00119433 0.0025 0.546535 0.429284 1.96366 0.00914854 27 4 1 1.0524e-09 
1.39705 -0.673163 0.00128818 0.0025 0.546535 0.42928 1.96365 0.00914854 28 3 1 6.96945e-10 
1.40162 -0.67317 0.00137964 0.0025 0.546535 0.429277 1.96363 0.00914855 29 4 1 -9.34946e-10 
1.4062 -0.673177 0.0014716 0.0025 0.546534 0.429273 1.96362 0.00914856 30 4 1 3.2706e-10 
1.41077 -0.673185 0.00156962 0.0025 0.546533 0.429269 1.9636 0.00914857 31 4 1 1.76187e-09 
1.41535 -0.673193 0.00167815 0.0025 0.546532 0.429265 1.96359 0.0091486 32 4 1 -1.09808e-09 
1.41992 -0.673202 0.00179503 0.0025 0.54653 0.42926 1.96357 0.00914863 33 4 1 -1.09408e-09 
1.4245 -0.673212 0.00190656 0.0025 0.546528 0.429256 1.96356 0.00914867 34 4 1 1.86444e-09 
1.42907 -0.673223 0.00198871 0.0025 0.546525 0.42925 1.96354 0.00914872 35 4 1 -3.89492e-10 
1.43364 -0.673235 0.00202029 0.0025 0.546522 0.429245 1.96353 0.00914877 36 4 1 -9.43525e-10 
1.43822 -0.673249 0.00200548 0.0025 0.546519 0.429239 1.96352 0.00914882 37 4 1 1.45405e-09 
1.44279 -0.673265 0.00199019 0.0025 0.546515 0.429234 1.9635 0.00914888 38 4 1 9.5426e-11 
1.44737 -0.673283 0.0020532 0.0025 0.546512 0.429228 1.96349 0.00914894 39 4 1 -9.43823e-10 
1.45194 -0.673303 0.0022695 0.0025 0.546508 0.429222 1.96348 0.009149 40 4 1 1.13152e-10 
1.45652 -0.673324 0.00267031 0.0025 0.546503 0.429215 1.96346 0.00914907 41 4 1 -6.17538e-10 
1.46109 -0.673346 0.00323183 0.0025 0.546498 0.429208 1.96345 0.00914917 42 4 1 -2.09719e-09 
1.46567 -0.673369 0.0038998 0.0025 0.546491 0.429199 1.96343 0.00914929 43 4 1 -1.77197e-09 
1.47024 -0.673393 0.0046231 0.0025 0.546482 0.429188 1.96341 0.00914943 44 4 1 -9.73756e-10 
1.47482 -0.673418 0.00536851 0.0025 0.546472 0.429175 1.96339 0.00914961 45 4 1 -2.40155e-09 
1.47939 -0.673444 0.00611763 0.0025 0.546459 0.42916 1.96337 0.00914981 46 4 1 -2.79795e-09 
1.48396 -0.673472 0.00686635 0.0025 0.546445 0.429143 1.96334 0.00915005 47 4 1 -1.53288e-09 
1.48854 -0.673503 0.00763396 0.0025 0.546429 0.429124 1.96331 0.00915032 48 4 1 -1.95361e-09 
1.49312 -0.673537 0.00846649 0.0025 0.54641 0.429103 1.96328 0.00915063 49 4 1 -3.05913e-09 
1.49769 -0.673575 0.00941742 0.0025 0.54639 0.429079 1.96325 0.00915097 50 4 1 -3.0855e-09 
-0.497734 -0.673618 0.0105141 0.0025 0.546367 0.429053 1.96321 0.00915136 51 4 1 -2.55033e-09 
-0.493158 -0.673666 0.0117448 0.0025 0.546341 0.429023 1.96317 0.00915179 52 4 1 -3.66354e-09 
-0.488582 -0.673719 0.013092 0.0025 0.546312 0.42899 1.96312 0.00915228 53 4 1 -4.78534e-09 
-0.484006 -0.673779 0.0145799 0.0025 0.546279 0.428953 1.96307 0.00915282 54 4 1 -4.37753e-09 
-0.479429 -0.673847 0.0162811 0.0025 0.546243 0.428912 1.96301 0.00915344 55 4 1 -4.34397e-09 
-0.474852 -0.673924 0.0182587 0.0025 0.546202 0.428867 1.96295 0.00915412 56 4 1 -6.01769e-09 
-0.470275 -0.674009 0.0204922 0.0025 0.546156 0.428815 1.96288 0.00915489 57 4 1 -6.91952e-09 
-0.465697 -0.674104 0.0228619 0.0025 0.546105 0.428758 1.9628 0.00915575 58 4 1 -5.85137e-09 
-0.461119 -0.67421 0.0252215 0.0025 0.546048 0.428695 1.96272 0.0091567 59 4 1 -5.85563e-09 
-0.456541 -0.674327 0.027494 0.0025 0.545986 0.428626 1.96262 0.00915774 60 4 1 -5.98246e-09 
-0.451962 -0.674454 0.0297049 0.0025 0.545919 0.428552 1.96252 0.00915886 61 4 1 -5.05443e-09 
-0.447382 -0.674592 0.0318613 0.0025 0.545848 0.428473 1.96242 0.00916005 62 4 1 -3.33045e-09 
-0.442802 -0.674736 0.0336723 0.0025 0.545774 0.42839 1.96231 0.0091613 63 4 1 -1.56496e-09 
-0.438221 -0.674882 0.0344021 0.0025 0.545698 0.428306 1.9622 0.00916259 64 4 1 1.89834e-09 
-0.433639 -0.675027 0.0333278 0.0025 0.545623 0.428224 1.96208 0.00916384 65 4 1 7.52807e-09 
-0.429057 -0.675168 0.0306321 0.0025 0.545554 0.428148 1.96198 0.00916499 66 4 1 1.23608e-08 
-0.424474 -0.675295 0.0268517 0.0025 0.545495 0.428083 1.96189 0.00916598 67 4 1 1.61402e-08 
-0.419891 -0.675396 0.0217204 0.0025 0.54545 0.428032 1.96183 0.00916674 68 4 1 2.21781e-08 
-0.415307 -0.675459 0.013715 0.0025 0.545423 0.428002 1.96178 0.0091672 69 4 1 2.07574e-08 
-0.410724 -0.675468 0.0044813 0.0025 0.545413 0.427991 1.96177 0.00916737 70 5 1 3.57524e-08 
-0.40614 -0.675496 -0.00193436 0.0025 0.545434 0.428019 1.9618 0.009167 71 4 1 1.62797e-07 
-0.401557 -0.675238 -0.111315 0.0025 0.54559 0.428194 1.96202 0.00916439 72 4 1 2.85869e-07 
-0.396975 -0.674517 -0.216501 0.0025 0.545976 0.428618 1.96257 0.00915792 73 4 1 3.17999e-07 
-0.392399 -0.673352 -0.3122 0.0025 0.54661 0.429321 1.96348 0.00914729 74 4 1 4.90804e-07 
-0.387828 -0.671566 -0.518474 0.0025 0.547611 0.430433 1.96491 0.00913057 75 4 1 8.728e-07 
-0.383268 -0.66854 -0.873933 0.0025 0.549221 0.432211 1.96722 0.0091038 76 4 1 1.14262e-06 
-0.378724 -0.664033 -1.19827 0.0025 0.551549 0.434773 1.97055 0.00906537 77 4 1 1.15256e-06 
-0.374203 -0.658349 -1.43319 0.0025 0.554488 0.438012 1.97474 0.00901733 78 4 1 1.07044e-06 
-0.369707 -0.651908 -1.58518 0.0025 0.557871 0.441753 1.97955 0.00896265 79 4 1 1.06533e-06 
-0.36524 -0.644883 -1.73357 0.0025 0.561605 0.445899 1.98484 0.00890305 80 4 1 1.18057e-06 
-0.360804 -0.637253 -1.89942 0.0025 0.565689 0.450447 1.9906 0.00883877 81 4 1 1.33792e-06 
-0.356401 -0.628965 -2.08227 0.0025 0.570145 0.455422 1.99686 0.00876969 82 4 1 1.46859e-06 
-0.352034 -0.619997 -2.25552 0.0025 0.57497 0.460824 2.0036 0.0086961 83 4 1 1.5147e-06 
-0.347705 -0.61053 -2.38982 0.0025 0.580108 0.466596 2.01074 0.00861908 84 4 1 1.47277e-06 
-0.343415 -0.600704 -2.47305 0.0025 0.585465 0.472633 2.01815 0.00854022 85 4 1 1.36311e-06 
-0.339164 -0.590771 -2.49986 0.0025 0.590928 0.478814 2.02566 0.00846126 86 4 1 1.24184e-06 
-0.334953 -0.580905 -2.4966 0.0025 0.596408 0.485039 2.03315 0.00838352 87 4 1 1.14696e-06 
-0.330781 -0.571188 -2.47793 0.0025 0.601852 0.491247 2.04055 0.00830769 88 4 1 1.07728e-06 
-0.326645 -0.561662 -2.45631 0.0025 0.607236 0.497409 2.04783 0.00823403 89 4 1 1.01774e-06 
-0.322546 -0.552312 -2.42831 0.0025 0.612548 0.50351 2.05498 0.00816262 90 4 1 9.44839e-07 
-0.318483 -0.543219 -2.38527 0.0025 0.61777 0.509529 2.06196 0.00809363 91 4 1 9.11034e-07 
-0.314453 -0.53431 -2.36655 0.0025 0.622909 0.515473 2.06881 0.00802685 92 4 1 8.884e-07 
-0.310456 -0.525572 -2.33975 0.0025 0.62798 0.521357 2.07553 0.00796204 93 4 1 8.43852e-07 
-0.30649 -0.517021 -2.31071 0.0025 0.632977 0.527175 2.08212 0.00789918 94 4 1 8.30704e-07 
-0.302556 -0.508629 -2.29865 0.0025 0.637917 0.532944 2.0886 0.00783801 95 4 1 8.27542e-07 
-0.298652 -0.500348 -2.28822 0.0025 0.642817 0.538685 2.095 0.00777826 96 4 1 8.29365e-07 
-0.294778 -0.492181 -2.29023 0.0025 0.647695 0.544418 2.10135 0.00771968 97 4 1 8.5115e-07 
-0.290933 -0.484043 -2.30621 0.0025 0.652577 0.550172 2.10767 0.00766193 98 4 1 8.71514e-07 
-0.287116 -0.475901 -2.32649 0.0025 0.657483 0.555971 2.11399 0.00760476 99 4 1 8.97104e-07 
-0.283328 -0.467765 -2.35811 0.0025 0.662431 0.56184 2.12034 0.00754795 100 4 1 9.63754e-07 
-0.279568 -0.459506 -2.42648 0.0025 0.667463 0.567824 2.12677 0.00749105 101 4 1 9.93734e-07 
-0.275836 -0.451125 -2.46954 0.0025 0.672588 0.573937 2.13328 0.00743397 102 4 1 9.64818e-07 
-0.272134 -0.442732 -2.49408 0.0025 0.677776 0.580144 2.13985 0.00737707 103 4 1 1.0042e-06 
-0.268459 -0.434259 -2.56296 0.0025 0.683041 0.586463 2.14648 0.0073202 104 4 1 1.01309e-06 
-0.264813 -0.425697 -2.58994 0.0025 0.688383 0.592892 2.15318 0.0072634 105 4 1 9.69093e-07 
-0.261196 -0.417145 -2.61016 0.0025 0.693761 0.599387 2.15989 0.00720709 106 4 1 9.60016e-07 
-0.257606 -0.408595 -2.63328 0.0025 0.699168 0.605936 2.16661 0.00715136 107 4 1 9.38744e-07 
-0.254044 -0.400069 -2.64181 0.0025 0.70459 0.612524 2.17332 0.00709633 108 4 1 9.11068e-07 
-0.25051 -0.391599 -2.6467 0.0025 0.710012 0.619133 2.17999 0.00704213 109 4 1 8.92495e-07 
-0.247002 -0.383201 -2.64993 0.0025 0.71543 0.625758 2.18663 0.00698881 110 4 1 9.05971e-07 
-0.243521 -0.374826 -2.67934 0.0025 0.720858 0.632414 2.19325 0.00693618 111 4 1 8.6671e-07 
-0.240066 -0.3665 -2.65634 0.0025 0.726278 0.63908 2.19983 0.00688442 112 4 1 8.37167e-07 
-0.236636 -0.358296 -2.66648 0.0025 0.731676 0.64574 2.20636 0.00683363 113 4 1 8.64652e-07 
-0.233232 -0.35011 -2.68728 0.0025 0.737081 0.652428 2.21286 0.00678352 114 4 1 8.26719e-07 
-0.229853 -0.341972 -2.67168 0.0025 0.742475 0.659121 2.21933 0.00673423 115 4 1 7.91542e-07 
-0.226498 -0.333949 -2.66743 0.0025 0.747842 0.665801 2.22573 0.00668591 116 4 1 7.99647e-07 
-0.223167 -0.325986 -2.6758 0.0025 0.753197 0.672487 2.23209 0.00663837 117 4 1 8.16388e-07 
-0.219859 -0.318045 -2.70028 0.0025 0.758563 0.679202 2.23843 0.00659141 118 4 1 7.93448e-07 
-0.216575 -0.310126 -2.69373 0.0025 0.763927 0.685934 2.24475 0.00654512 119 4 1 7.3036e-07 
-0.213314 -0.302331 -2.66333 0.0025 0.769254 0.69264 2.251 0.00649981 120 4 1 7.59566e-07 
-0.210075 -0.294621 -2.70111 0.0025 0.774572 0.699356 2.25721 0.00645518 121 4 1 7.97358e-07 
-0.206859 -0.286844 -2.7246 0.0025 0.779919 0.706121 2.26343 0.00641092 122 4 1 7.14681e-07 
-0.203664 -0.279188 -2.68057 0.0025 0.785239 0.712872 2.26959 0.00636749 123 4 1 6.76981e-07 
-0.200491 -0.271676 -2.67414 0.0025 0.790511 0.719584 2.27568 0.00632502 124 4 1 7.40436e-07 
-0.197339 -0.26415 -2.71712 0.0025 0.795796 0.726329 2.28175 0.00628302 125 4 1 7.57361e-07 
-0.194208 -0.256591 -2.73635 0.0025 0.801112 0.733127 2.28783 0.00624133 126 4 1 6.74049e-07 
-0.191098 -0.249136 -2.69198 0.0025 0.806398 0.739908 2.29386 0.00620041 127 4 1 6.50502e-07 
-0.188008 -0.241798 -2.69668 0.0025 0.811645 0.746659 2.29982 0.00616033 128 4 1 6.9001e-07 
-0.184937 -0.234483 -2.71483 0.0025 0.816895 0.75343 2.30576 0.00612074 129 4 1 7.14238e-07 
-0.181887 -0.227155 -2.75268 0.0025 0.822172 0.76025 2.3117 0.00608146 130 4 1 6.54249e-07 
-0.178856 -0.219873 -2.71045 0.0025 0.827432 0.767066 2.31761 0.0060428 131 4 1 5.89363e-07 
-0.175844 -0.212745 -2.68478 0.0025 0.832633 0.773826 2.32342 0.00600505 132 4 1 6.34541e-07 
-0.172851 -0.205676 -2.7109 0.0025 0.837823 0.78059 2.3292 0.00596785 133 4 1 6.95916e-07 
-0.169876 -0.198555 -2.76446 0.0025 0.843057 0.787425 2.33501 0.0059308 134 4 1 6.69187e-07 
-0.16692 -0.191409 -2.76099 0.0025 0.848314 0.794303 2.34083 0.00589405 135 4 1 5.54606e-07 
-0.163982 -0.184418 -2.68833 0.0025 0.853506 0.801117 2.34655 0.00585819 136 4 1 5.44761e-07 
-0.161062 -0.177587 -2.68873 0.0025 0.858639 0.807875 2.35218 0.00582317 137 4 1 6.64847e-07 
-0.158159 -0.170684 -2.77427 0.0025 0.863819 0.814708 2.35784 0.00578825 138 4 1 6.86602e-07 
-0.155273 -0.16368 -2.80307 0.0025 0.869063 0.821635 2.36356 0.00575332 139 4 1 5.27038e-07 
-0.152405 -0.156806 -2.6996 0.0025 0.874243 0.828496 2.36919 0.00571923 140 4 1 4.39492e-07 
-0.149554 -0.150224 -2.63846 0.0025 0.879301 0.835219 2.37465 0.00568634 141 4 1 5.9776e-07 
-0.146719 -0.143621 -2.74753 0.0025 0.884381 0.841989 2.38013 0.00565367 142 4 1 7.27039e-07 
-0.1439 -0.136781 -2.84846 0.0025 0.889594 0.84894 2.38574 0.00562054 143 4 1 5.93972e-07 
-0.141098 -0.129943 -2.78384 0.0025 0.894819 0.85592 2.39134 0.00558772 144 4 1 3.72762e-07 
-0.138313 -0.123455 -2.62097 0.0025 0.89988 0.862707 2.39673 0.0055563 145 4 1 4.5302e-07 
-0.135542 -0.117136 -2.68188 0.0025 0.904862 0.869411 2.40203 0.00552571 146 4 1 6.95161e-07 
-0.132787 -0.110587 -2.84063 0.0025 0.90998 0.876304 2.40745 0.00549463 147 4 1 6.79372e-07 
-0.130047 -0.103828 -2.86992 0.0025 0.915212 0.883354 2.41299 0.00546322 148 4 1 3.9096e-07 
-0.127324 -0.0973479 -2.66324 0.0025 0.92031 0.890246 2.41835 0.00543295 149 4 1 2.84492e-07 
-0.124614 -0.0912585 -2.581 0.0025 0.925201 0.896886 2.42348 0.00540423 150 4 1 5.308e-07 
-0.121919 -0.0851434 -2.72327 0.0025 0.930121 0.903579 2.42862 0.00537564 151 4 1 7.3043e-07 
-0.119239 -0.0786819 -2.89378 0.0025 0.935242 0.910547 2.43397 0.00534621 152 4 1 5.73761e-07 
-0.116573 -0.0721506 -2.81504 0.0025 0.940417 0.917597 2.43935 0.00531679 153 4 1 3.1173e-07 
-0.113922 -0.0659909 -2.64737 0.0025 0.945414 0.924428 2.44452 0.00528869 154 4 1 2.97281e-07 
-0.111284 -0.0600981 -2.58664 0.0025 0.950242 0.931052 2.4495 0.00526182 155 4 1 5.15647e-07 
-0.10866 -0.0541476 -2.7332 0.0025 0.955116 0.937753 2.45452 0.00523496 156 4 1 6.76076e-07 
-0.106049 -0.0478952 -2.88288 0.0025 0.960175 0.94471 2.45972 0.00520738 157 4 1 5.40186e-07 
-0.103453 -0.0415754 -2.83585 0.0025 0.965273 0.951725 2.46494 0.00517988 158 4 1 1.1052e-07 
-0.100869 -0.0356972 -2.43154 0.0025 0.970054 0.958322 2.46981 0.00515435 159 4 1 -8.93603e-09 
-0.0982983 -0.0306588 -2.26276 0.0025 0.974471 0.964467 2.47428 0.00513099 160 4 1 9.03094e-07 
-0.0957384 -0.0249431 -3.11885 0.0025 0.979304 0.971194 2.47919 0.00510567 161 4 1 1.17874e-06 
-0.0931926 -0.0178155 -3.30874 0.0025 0.984734 0.978671 2.48473 0.00507751 162 4 1 -8.31861e-07 
-0.0906609 -0.0124732 -1.45027 0.0025 0.989095 0.984716 2.48909 0.00505513 163 4 1 -8.09035e-07 
-0.0881374 -0.00969547 -1.62289 0.0025 0.992424 0.989485 2.49236 0.00503817 164 4 1 2.44241e-06 
-0.0856227 -0.00333765 -4.36841 0.0025 0.997551 0.996659 2.49758 0.00501227 165 4 1 1.67289e-06 
-0.0831251 0.0054779 -3.50117 0.0025 1.00377 1.00519 2.50388 0.00498124 166 4 1 -2.62754e-06 
-0.0806414 0.00925623 -0.221428 0.0025 1.00724 1.01006 2.50726 0.00496404 167 4 1 -1.73252e-06 
-0.078161 0.00950593 -0.462241 0.0025 1.00873 1.01233 2.50865 0.00495671 168 4 1 2.4977e-06 
-0.0756847 0.0139305 -3.68467 0.0025 1.01234 1.01742 2.5123 0.00493906 169 4 1 1.91041e-06 
-0.0732219 0.0215443 -3.17338 0.0025 1.01756 1.0246 2.51757 0.0049137 170 4 1 -2.19038e-06 
-0.070771 0.0248306 -0.332946 0.0025 1.02047 1.02866 2.52041 0.00489972 171 4 1 -2.29955e-06 
-0.0683222 0.0246249 0.356917 0.0025 1.02066 1.02901 2.52056 0.0048988 172 3 1 -6.24044e-07 
-0.0658722 0.0237536 0.473281 0.0025 1.01997 1.02806 2.51987 0.00490211 173 4 1 -1.62015e-07 
-0.0634201 0.0227149 0.518147 0.0025 1.01905 1.02677 2.51896 0.00490653 174 4 1 -1.26448e-07 
-0.0609656 0.0215066 0.60762 0.0025 1.01796 1.02523 2.51789 0.00491178 175 4 1 -1.49e-07 
-0.0585083 0.0200609 0.730337 0.0025 1.01667 1.02341 2.51661 0.00491802 176 4 1 -1.37853e-07 
-0.0560476 0.0183639 0.85075 0.0025 1.01518 1.02132 2.51513 0.00492522 177 4 1 -8.64228e-08 
-0.0535831 0.0164658 0.938397 0.0025 1.01355 1.01902 2.51351 0.00493316 178 4 1 -1.44133e-08 
-0.0511145 0.0144549 0.978996 0.0025 1.01184 1.01662 2.51181 0.00494148 179 4 1 5.72583e-08 
-0.0486416 0.012429 0.97202 0.0025 1.01014 1.01423 2.51012 0.0049498 180 4 1 1.15126e-07 
-0.0461647 0.0104747 0.925274 0.0025 1.00852 1.01195 2.5085 0.00495778 181 4 1 1.54048e-07 
-0.0436838 0.00865862 0.849778 0.0025 1.00702 1.00984 2.507 0.00496517 182 4 1 1.74515e-07 
-0.0411995 0.00702439 0.756618 0.0025 1.00567 1.00796 2.50566 0.00497179 183 4 1 1.79765e-07 
-0.038712 0.00559516 0.655394 0.0025 1.00451 1.00632 2.5045 0.00497757 184 4 1 1.73816e-07 
-0.0362219 0.00437706 0.553674 0.0025 1.00352 1.00493 2.50351 0.00498248 185 4 1 1.60447e-07 
-0.0337295 0.00336345 0.456953 0.0025 1.00269 1.00378 2.50269 0.00498656 186 4 1 1.42789e-07 
-0.0312353 0.00253884 0.368855 0.0025 1.00203 1.00285 2.50203 0.00498987 187 4 1 1.23244e-07 
-0.0287397 0.00188242 0.291431 0.0025 1.0015 1.00211 2.5015 0.0049925 188 4 1 1.03545e-07 
-0.0262428 0.00137081 0.225484 0.0025 1.00109 1.00153 2.50109 0.00499455 189 4 1 8.48722e-08 
-0.0237451 0.000980259 0.170886 0.0025 1.00078 1.00109 2.50078 0.00499611 190 4 1 6.7961e-08 
-0.0212467 0.000688177 0.126866 0.0025 1.00055 1.00077 2.50054 0.00499727 191 4 1 5.32084e-08 
-0.0187479 0.000474139 0.0922513 0.0025 1.00038 1.00053 2.50037 0.00499812 192 4 1 4.07569e-08 
-0.0162486 0.000320417 0.0656731 0.0025 1.00025 1.00036 2.50025 0.00499873 193 4 1 3.05673e-08 
-0.0137491 0.000212151 0.045714 0.0025 1.00017 1.00024 2.50017 0.00499916 194 4 1 2.24804e-08 
-0.0112495 0.000137255 0.0310146 0.0025 1.00011 1.00015 2.50011 0.00499945 195 4 1 1.62696e-08 
-0.00874967 8.61362e-05 0.0203348 0.0025 1.00007 1.0001 2.50007 0.00499964 196 4 1 1.16847e-08 
-0.00624981 5.13067e-05 0.0125794 0.0025 1.00005 1.00007 2.50005 0.00499977 197 4 1 8.48677e-09 
-0.0037499 2.69318e-05 0.0067946 0.0025 1.00003 1.00004 2.50003 0.00499984 198 4 1 6.47529e-09 
-0.00124997 8.35871e-06 0.00214195 0.0025 1.00003 1.00004 2.50002 0.00499987 199 4 1 5.5065e-09 
0.00124997 -8.35871e-06 -0.00214195 0.0025 1.00003 1.00004 2.50002 0.00499987 200 4 1 5.5065e-09 
0.0037499 -2.69318e-05 -0.0067946 0.0025 1.00003 1.00004 2.50003 0.00499984 201 4 1 6.47529e-09 
0.00624981 -5.13067e-05 -0.0125794 0.0025 1.00005 1.00007 2.50005 0.00499977 202 4 1 8.48677e-09 
0.00874967 -8.61362e-05 -0.0203348 0.0025 1.00007 1.0001 2.50007 0.00499964 203 4 1 1.16847e-08 
0.0112495 -0.000137255 -0.0310146 0.0025 1.00011 1.00015 2.50011 0.00499945 204 4 1 1.62696e-08 
0.0137491 -0.000212151 -0.045714 0.0025 1.00017 1.00024 2.50017 0.00499916 205 4 1 2.24804e-08 
0.0162486 -0.000320417 -0.0656731 0.0025 1.00025 1.00036 2.50025 0.00499873 206 4 1 3.05673e-08 
0.0187479 -0.000474139 -0.0922513 0.0025 1.00038 1.00053 2.50037 0.00499812 207 4 1 4.07569e-08 
0.0212467 -0.000688177 -0.126866 0.0025 1.00055 1.00077 2.50054 0.00499727 208 4 1 5.32084e-08 
0.0237451 -0.000980259 -0.170886 0.0025 1.00078 1.00109 2.50078 0.00499611 209 4 1 6.7961e-08 
0.0262428 -0.00137081 -0.225484 0.0025 1.00109 1.00153 2.50109 0.00499455 210 4 1 8.48722e-08 
0.0287397 -0.00188242 -0.291431 0.0025 1.0015 1.00211 2.5015 0.0049925 211 4 1 1.03545e-07 
