# Time [s]: 0.349912
# Columns: pos [m], vel [m/s], acc [m/s^2], mass [kg], dens [kg/m^3], pres [Pa], ene [J/kg], sml [m], id, neighbor, alpha, gradh, ...additional?
1.2667 -0.673085 0.000221395 0.0025 0.511054 0.432731 2.15251 0.0097837 0 4 1 -0.000134225 
1.27148 -0.673086 0.000229359 0.0025 0.536911 0.426193 1.95005 0.00931253 1 4 1 0.000179253 
1.27602 -0.673087 0.000238365 0.0025 0.548241 0.430863 1.96851 0.00912008 2 3 1 -1.90585e-05 
1.2806 -0.673088 0.00024939 0.0025 0.545976 0.429198 1.96465 0.00915791 3 5 1 3.48571e-06 
1.28518 -0.673089 0.000262366 0.0025 0.546374 0.429353 1.96458 0.00915124 4 4 1 -1.38707e-07 
1.28975 -0.67309 0.000276816 0.0025 0.546384 0.429323 1.96435 0.00915107 5 4 1 1.43701e-07 
1.29433 -0.673091 0.000292142 0.0025 0.546407 0.429321 1.96429 0.00915069 6 4 1 -3.54213e-09 
1.2989 -0.673093 0.000308222 0.0025 0.54642 0.429318 1.96423 0.00915047 7 4 1 8.20214e-09 
1.30348 -0.673094 0.000325661 0.0025 0.546434 0.429317 1.96418 0.00915024 8 4 1 4.72869e-09 
1.30806 -0.673096 0.00034535 0.0025 0.546446 0.429316 1.96413 0.00915004 9 4 1 5.43613e-09 
1.31263 -0.673097 0.000367577 0.0025 0.546457 0.429315 1.96409 0.00914986 10 4 1 -2.28454e-09 
1.31721 -0.673099 0.000391474 0.0025 0.546467 0.429314 1.96404 0.00914968 11 4 1 4.68035e-09 
1.32178 -0.673101 0.000415487 0.0025 0.546477 0.429313 1.964 0.00914952 12 4 1 2.80244e-09 
1.32635 -0.673103 0.000438792 0.0025 0.546485 0.429312 1.96397 0.00914938 13 4 1 3.52452e-09 
1.33093 -0.673106 0.000462552 0.0025 0.546492 0.429311 1.96394 0.00914926 14 4 1 2.07156e-09 
1.3355 -0.673108 0.000489739 0.0025 0.546499 0.42931 1.96391 0.00914915 15 4 1 -1.63638e-09 
1.34008 -0.673111 0.000523199 0.0025 0.546505 0.429308 1.96388 0.00914904 16 4 1 4.8365e-09 
1.34465 -0.673113 0.000563248 0.0025 0.546511 0.429307 1.96385 0.00914895 17 4 1 1.40482e-09 
1.34923 -0.673116 0.000606847 0.0025 0.546515 0.429305 1.96383 0.00914888 18 4 1 -1.27449e-09 
1.3538 -0.673119 0.000649445 0.0025 0.54652 0.429304 1.96381 0.0091488 19 4 1 2.62507e-09 
1.35838 -0.673123 0.00068847 0.0025 0.546524 0.429302 1.96379 0.00914874 20 4 1 1.10566e-09 
1.36295 -0.673126 0.000725848 0.0025 0.546527 0.4293 1.96377 0.00914868 21 4 1 1.13351e-09 
1.36752 -0.67313 0.000767472 0.0025 0.54653 0.429298 1.96375 0.00914864 22 4 1 9.91604e-10 
1.3721 -0.673134 0.000819782 0.0025 0.546532 0.429296 1.96373 0.0091486 23 4 1 -2.59061e-10 
1.37667 -0.673139 0.00088582 0.0025 0.546534 0.429294 1.96371 0.00914856 24 4 1 1.3634e-09 
1.38125 -0.673143 0.00096352 0.0025 0.546535 0.429291 1.96369 0.00914854 25 4 1 6.00582e-10 
1.38582 -0.673148 0.00104722 0.0025 0.546536 0.429289 1.96368 0.00914852 26 4 1 -5.06131e-10 
1.3904 -0.673154 0.00113115 0.0025 0.546537 0.429286 1.96366 0.00914851 27 4 1 1.08062e-09 
1.39497 -0.67316 0.00121253 0.0025 0.546537 0.429283 1.96365 0.0091485 28 3 1 7.29685e-10 
1.39954 -0.673166 0.00129273 0.0025 0.546537 0.42928 1.96363 0.00914851 29 4 1 -9.04193e-10 
1.40412 -0.673173 0.00137615 0.0025 0.546537 0.429276 1.96362 0.00914851 30 4 1 3.53121e-10 
1.40869 -0.67318 0.00146697 0.0025 0.546536 0.429272 1.9636 0.00914853 31 4 1 1.78793e-09 
1.41327 -0.673188 0.00156432 0.0025 0.546535 0.429268 1.96359 0.00914855 32 4 1 -1.05814e-09 
1.41784 -0.673197 0.0016575 0.0025 0.546533 0.429264 1.96358 0.00914858 33 4 1 -1.02081e-09 
1.42242 -0.673206 0.00172589 0.0025 0.546531 0.42926 1.96356 0.00914861 34 4 1 1.98312e-09 
1.42699 -0.673217 0.00174858 0.0025 0.546529 0.429255 1.96355 0.00914864 35 4 1 -2.38959e-10 
1.43156 -0.673229 0.00172336 0.0025 0.546527 0.42925 1.96354 0.00914869 36 4 1 -8.09041e-10 
1.43614 -0.673243 0.0016835 0.0025 0.546524 0.429245 1.96352 0.00914873 37 4 1 1.50748e-09 
1.44071 -0.673259 0.0016958 0.0025 0.546521 0.429241 1.96351 0.00914877 38 4 1 2.68626e-11 
1.44529 -0.673277 0.00183315 0.0025 0.546519 0.429236 1.9635 0.00914882 39 4 1 -1.1151e-09 
1.44986 -0.673296 0.00213738 0.0025 0.546515 0.42923 1.96349 0.00914887 40 4 1 -8.51554e-11 
1.45444 -0.673316 0.00260061 0.0025 0.546511 0.429224 1.96347 0.00914894 41 4 1 -7.56413e-10 
1.45901 -0.673336 0.0031782 0.0025 0.546506 0.429217 1.96346 0.00914903 42 4 1 -2.12732e-09 
1.46359 -0.673357 0.00381816 0.0025 0.546499 0.429208 1.96344 0.00914915 43 4 1 -1.69144e-09 
1.46816 -0.673379 0.00448105 0.0025 0.546491 0.429197 1.96342 0.00914929 44 4 1 -8.04173e-10 
1.47274 -0.673402 0.00514281 0.0025 0.546481 0.429185 1.9634 0.00914946 45 4 1 -2.16683e-09 
1.47731 -0.673426 0.00579393 0.0025 0.546469 0.42917 1.96338 0.00914965 46 4 1 -2.52568e-09 
1.48188 -0.673452 0.00644513 0.0025 0.546455 0.429155 1.96336 0.00914988 47 4 1 -1.26006e-09 
1.48646 -0.67348 0.00713146 0.0025 0.54644 0.429137 1.96333 0.00915013 48 4 1 -1.71156e-09 
1.49103 -0.673512 0.00789984 0.0025 0.546423 0.429117 1.9633 0.00915042 49 4 1 -2.84328e-09 
1.49561 -0.673547 0.00878182 0.0025 0.546404 0.429095 1.96327 0.00915073 50 4 1 -2.84744e-09 
-0.499814 -0.673587 0.00977683 0.0025 0.546383 0.42907 1.96323 0.00915109 51 4 1 -2.23892e-09 
-0.495239 -0.673631 0.0108708 0.0025 0.546359 0.429043 1.96319 0.00915149 52 4 1 -3.2839e-09 
-0.490663 -0.67368 0.0120775 0.0025 0.546332 0.429012 1.96315 0.00915194 53 4 1 -4.40643e-09 
-0.486087 -0.673736 0.013456 0.0025 0.546302 0.428978 1.9631 0.00915244 54 4 1 -4.06586e-09 
-0.481511 -0.673799 0.0150752 0.0025 0.546269 0.428941 1.96305 0.00915301 55 4 1 -4.08717e-09 
-0.476934 -0.67387 0.0169502 0.0025 0.546231 0.428898 1.96299 0.00915364 56 4 1 -5.72746e-09 
-0.472357 -0.673948 0.0190154 0.0025 0.546188 0.42885 1.96293 0.00915435 57 4 1 -6.53641e-09 
-0.46778 -0.674036 0.0211712 0.0025 0.546141 0.428797 1.96285 0.00915515 58 4 1 -5.46452e-09 
-0.463202 -0.674135 0.0233709 0.0025 0.546088 0.428739 1.96277 0.00915603 59 4 1 -5.71764e-09 
-0.458623 -0.674245 0.0256643 0.0025 0.54603 0.428674 1.96269 0.009157 60 4 1 -6.36873e-09 
-0.454045 -0.674365 0.0281177 0.0025 0.545967 0.428604 1.96259 0.00915806 61 4 1 -6.00896e-09 
-0.449465 -0.674495 0.0305931 0.0025 0.545899 0.428528 1.96249 0.0091592 62 4 1 -4.53919e-09 
-0.444886 -0.674633 0.0325903 0.0025 0.545826 0.428448 1.96238 0.00916042 63 4 1 -2.72501e-09 
-0.440305 -0.674777 0.0335043 0.0025 0.545751 0.428365 1.96227 0.00916168 64 4 1 3.24703e-10 
-0.435724 -0.674924 0.0332401 0.0025 0.545676 0.428282 1.96216 0.00916294 65 4 1 4.4452e-09 
-0.431142 -0.675071 0.0321728 0.0025 0.545605 0.428203 1.96206 0.00916414 66 4 1 7.92622e-09 
-0.42656 -0.675206 0.0300918 0.0025 0.54554 0.428131 1.96196 0.00916524 67 4 1 1.14105e-08 
-0.421977 -0.675321 0.0264163 0.0025 0.545484 0.428069 1.96188 0.00916618 68 4 1 1.68768e-08 
-0.417394 -0.675407 0.0195662 0.0025 0.545442 0.428023 1.96181 0.00916688 69 4 1 2.74597e-08 
-0.41281 -0.675456 0.00738195 0.0025 0.545422 0.428 1.96178 0.00916721 70 4 1 1.68633e-08 
-0.408226 -0.675465 0.012665 0.0025 0.545417 0.427996 1.96177 0.00916729 71 5 1 6.41999e-08 
-0.403643 -0.675458 -0.03345 0.0025 0.545468 0.428056 1.96184 0.00916645 72 4 1 2.06497e-07 
-0.39906 -0.675076 -0.14232 0.0025 0.545686 0.428299 1.96215 0.00916278 73 4 1 2.95904e-07 
-0.39448 -0.674204 -0.244238 0.0025 0.546141 0.4288 1.9628 0.00915515 74 4 1 3.4535e-07 
-0.389905 -0.672889 -0.354817 0.0025 0.546863 0.429601 1.96384 0.00914305 75 4 1 5.81106e-07 
-0.385337 -0.670824 -0.608726 0.0025 0.548012 0.430875 1.96548 0.0091239 76 4 1 9.58319e-07 
-0.380781 -0.667383 -0.963919 0.0025 0.549812 0.432862 1.96806 0.00909401 77 4 1 1.1631e-06 
-0.376243 -0.662542 -1.27216 0.0025 0.552316 0.435618 1.97164 0.00905278 78 4 1 1.12814e-06 
-0.371728 -0.656636 -1.47464 0.0025 0.555384 0.439001 1.97602 0.00900278 79 4 1 1.04478e-06 
-0.36724 -0.650056 -1.61818 0.0025 0.558854 0.442843 1.98094 0.00894688 80 4 1 1.06972e-06 
-0.362781 -0.642907 -1.76441 0.0025 0.562661 0.447072 1.98633 0.00888635 81 4 1 1.19205e-06 
-0.358353 -0.635155 -1.9281 0.0025 0.566809 0.451695 1.99217 0.00882131 82 4 1 1.35886e-06 
-0.35396 -0.626754 -2.11656 0.0025 0.571329 0.456745 1.99851 0.00875153 83 4 1 1.46132e-06 
-0.349602 -0.61773 -2.26924 0.0025 0.5762 0.462203 2.00531 0.00867755 84 4 1 1.48079e-06 
-0.345282 -0.60823 -2.39461 0.0025 0.581354 0.467997 2.01246 0.00860061 85 4 1 1.43257e-06 
-0.341001 -0.598442 -2.46335 0.0025 0.586702 0.47403 2.01985 0.00852222 86 4 1 1.31406e-06 
-0.336759 -0.588595 -2.48101 0.0025 0.592132 0.480179 2.0273 0.00844407 87 4 1 1.20051e-06 
-0.332557 -0.578838 -2.47414 0.0025 0.597564 0.486355 2.03472 0.00836731 88 4 1 1.10864e-06 
-0.328392 -0.569239 -2.45091 0.0025 0.602952 0.492503 2.04204 0.00829254 89 4 1 1.05236e-06 
-0.324264 -0.559831 -2.43582 0.0025 0.60828 0.498605 2.04924 0.0082199 90 4 1 9.83922e-07 
-0.320172 -0.550598 -2.39566 0.0025 0.613531 0.504641 2.05629 0.00814955 91 4 1 9.17669e-07 
-0.316114 -0.541614 -2.36262 0.0025 0.618691 0.510593 2.06319 0.00808158 92 4 1 8.96857e-07 
-0.31209 -0.532806 -2.34247 0.0025 0.623776 0.516478 2.06996 0.00801569 93 4 1 8.68589e-07 
-0.308098 -0.524166 -2.3171 0.0025 0.628794 0.522303 2.0766 0.00795173 94 4 1 8.29424e-07 
-0.304138 -0.515714 -2.29045 0.0025 0.633744 0.528069 2.08312 0.00788963 95 4 1 8.21382e-07 
-0.300209 -0.507409 -2.28271 0.0025 0.638641 0.533791 2.08955 0.00782913 96 4 1 8.12798e-07 
-0.296309 -0.499216 -2.26797 0.0025 0.6435 0.539486 2.09589 0.00777 97 4 1 8.12216e-07 
-0.292439 -0.491111 -2.27175 0.0025 0.648336 0.545172 2.10218 0.00771205 98 4 1 8.45065e-07 
-0.288597 -0.48304 -2.29356 0.0025 0.653182 0.550885 2.10845 0.00765484 99 4 1 8.56164e-07 
-0.284784 -0.474956 -2.30578 0.0025 0.658051 0.556644 2.11472 0.0075982 100 4 1 8.85709e-07 
-0.280999 -0.466875 -2.34573 0.0025 0.662963 0.562472 2.12102 0.00754189 101 4 1 9.5987e-07 
-0.277242 -0.458678 -2.41396 0.0025 0.667966 0.568423 2.12741 0.00748542 102 4 1 9.7588e-07 
-0.273513 -0.450361 -2.45187 0.0025 0.673058 0.574497 2.13388 0.00742878 103 4 1 9.49962e-07 
-0.269813 -0.442046 -2.47937 0.0025 0.678209 0.580663 2.1404 0.00737235 104 4 1 9.85274e-07 
-0.266141 -0.433629 -2.54117 0.0025 0.683435 0.586937 2.14698 0.00731598 105 4 1 9.90884e-07 
-0.262497 -0.425141 -2.56882 0.0025 0.688732 0.593313 2.15362 0.00725972 106 4 1 9.52241e-07 
-0.258881 -0.41666 -2.58825 0.0025 0.694065 0.599755 2.16027 0.00720394 107 4 1 9.41903e-07 
-0.255293 -0.408182 -2.61031 0.0025 0.699425 0.606248 2.16693 0.00714873 108 4 1 9.23999e-07 
-0.251732 -0.399736 -2.62064 0.0025 0.704801 0.612781 2.17358 0.0070942 109 4 1 8.95203e-07 
-0.248198 -0.391337 -2.62369 0.0025 0.710177 0.619334 2.18019 0.0070405 110 4 1 8.73229e-07 
-0.244691 -0.383023 -2.62504 0.0025 0.715546 0.6259 2.18677 0.00698767 111 4 1 8.91441e-07 
-0.241211 -0.374713 -2.65721 0.0025 0.720926 0.632498 2.19333 0.00693552 112 4 1 8.57556e-07 
-0.237756 -0.366476 -2.63684 0.0025 0.726302 0.639109 2.19986 0.00688418 113 4 1 8.16567e-07 
-0.234326 -0.358338 -2.63798 0.0025 0.731652 0.645711 2.20633 0.00683385 114 4 1 8.45626e-07 
-0.230922 -0.35022 -2.66346 0.0025 0.737006 0.652335 2.21277 0.00678421 115 4 1 8.1969e-07 
-0.227542 -0.342158 -2.65105 0.0025 0.742355 0.658971 2.21918 0.00673532 116 4 1 7.79042e-07 
-0.224186 -0.334197 -2.64446 0.0025 0.747676 0.665594 2.22553 0.00668738 117 4 1 7.7886e-07 
-0.220854 -0.326303 -2.64724 0.0025 0.752982 0.672217 2.23183 0.00664026 118 4 1 7.98521e-07 
-0.217546 -0.31843 -2.67329 0.0025 0.758295 0.678867 2.23812 0.00659374 119 4 1 7.92782e-07 
-0.214261 -0.310577 -2.67844 0.0025 0.763617 0.685544 2.24439 0.00654779 120 4 1 7.21361e-07 
-0.210998 -0.302843 -2.63925 0.0025 0.768903 0.692197 2.25059 0.00650277 121 4 1 7.36853e-07 
-0.207758 -0.295208 -2.67329 0.0025 0.774173 0.69885 2.25675 0.00645851 122 4 1 7.85905e-07 
-0.20454 -0.287511 -2.70143 0.0025 0.779472 0.705554 2.26291 0.0064146 123 4 1 7.10448e-07 
-0.201343 -0.279891 -2.66167 0.0025 0.784749 0.712249 2.26903 0.00637146 124 4 1 6.62133e-07 
-0.198168 -0.272426 -2.6475 0.0025 0.789977 0.718903 2.27506 0.0063293 125 4 1 7.16458e-07 
-0.195014 -0.264987 -2.68402 0.0025 0.795208 0.725577 2.28107 0.00628767 126 4 1 7.50698e-07 
-0.19188 -0.257491 -2.71534 0.0025 0.800474 0.732311 2.2871 0.0062463 127 4 1 6.79167e-07 
-0.188767 -0.250083 -2.67738 0.0025 0.805724 0.739042 2.29309 0.0062056 128 4 1 6.38648e-07 
-0.185675 -0.242794 -2.67289 0.0025 0.810933 0.74574 2.29901 0.00616574 129 4 1 6.62143e-07 
-0.182602 -0.235555 -2.67925 0.0025 0.81613 0.752442 2.30489 0.00612647 130 4 1 6.99204e-07 
-0.179548 -0.228288 -2.72466 0.0025 0.821351 0.759189 2.31078 0.00608753 131 4 1 6.6702e-07 
-0.176514 -0.221052 -2.70208 0.0025 0.826576 0.765955 2.31665 0.00604905 132 4 1 5.88758e-07 
-0.173499 -0.213957 -2.66603 0.0025 0.831747 0.772673 2.32243 0.00601145 133 4 1 6.02035e-07 
-0.170502 -0.206952 -2.67385 0.0025 0.836887 0.779369 2.32816 0.00597452 134 4 1 6.68149e-07 
-0.167524 -0.199919 -2.72562 0.0025 0.842059 0.78612 2.33391 0.00593783 135 4 1 6.79213e-07 
-0.164565 -0.192828 -2.749 0.0025 0.84727 0.792936 2.33967 0.00590131 136 4 1 5.76678e-07 
-0.161623 -0.18584 -2.68594 0.0025 0.852442 0.799719 2.34538 0.0058655 137 4 1 5.1875e-07 
-0.158699 -0.179046 -2.65342 0.0025 0.857538 0.806423 2.35097 0.00583064 138 4 1 6.11647e-07 
-0.155792 -0.172251 -2.7182 0.0025 0.862646 0.813159 2.35656 0.00579612 139 4 1 6.91202e-07 
-0.152903 -0.165333 -2.78665 0.0025 0.867832 0.820008 2.36222 0.00576149 140 4 1 5.80805e-07 
-0.150031 -0.158442 -2.71902 0.0025 0.873005 0.826853 2.36784 0.00572735 141 4 1 4.30781e-07 
-0.147175 -0.151837 -2.61729 0.0025 0.878051 0.833554 2.3733 0.00569443 142 4 1 5.17681e-07 
-0.144336 -0.145346 -2.67578 0.0025 0.883058 0.840224 2.37871 0.00566214 143 4 1 6.90956e-07 
-0.141513 -0.138663 -2.79727 0.0025 0.888178 0.847051 2.38422 0.0056295 144 4 1 6.62646e-07 
-0.138707 -0.131831 -2.81142 0.0025 0.893378 0.853994 2.38979 0.00559673 145 4 1 4.27324e-07 
-0.135916 -0.125256 -2.64422 0.0025 0.898464 0.860805 2.39522 0.00556505 146 4 1 3.74652e-07 
-0.133142 -0.118977 -2.61299 0.0025 0.903405 0.867448 2.40048 0.00553462 147 4 1 5.93413e-07 
-0.130382 -0.112621 -2.74593 0.0025 0.908404 0.874182 2.40578 0.00550416 148 4 1 7.19494e-07 
-0.127637 -0.105963 -2.8696 0.0025 0.913565 0.881134 2.41125 0.00547307 149 4 1 5.1272e-07 
-0.124909 -0.0993753 -2.73282 0.0025 0.918703 0.88807 2.41666 0.00544246 150 4 1 2.78398e-07 
-0.122195 -0.0932023 -2.57047 0.0025 0.923626 0.894744 2.42183 0.00541344 151 4 1 3.91569e-07 
-0.119495 -0.0872248 -2.61434 0.0025 0.928458 0.901315 2.42688 0.00538527 152 4 1 6.66517e-07 
-0.11681 -0.0809942 -2.81776 0.0025 0.933446 0.908102 2.43209 0.0053565 153 4 1 6.66037e-07 
-0.114139 -0.0744822 -2.84537 0.0025 0.938581 0.915094 2.43744 0.00532719 154 4 1 4.07043e-07 
-0.111482 -0.06818 -2.7016 0.0025 0.943628 0.921984 2.44268 0.0052987 155 4 1 2.63088e-07 
-0.10884 -0.0622354 -2.56655 0.0025 0.948472 0.928622 2.44768 0.00527164 156 4 1 3.90273e-07 
-0.106211 -0.056424 -2.62404 0.0025 0.953251 0.935187 2.4526 0.00524521 157 4 1 6.04445e-07 
-0.103595 -0.0503776 -2.7839 0.0025 0.958167 0.941948 2.45765 0.0052183 158 4 1 6.37983e-07 
-0.100992 -0.0441495 -2.87285 0.0025 0.963229 0.948914 2.46285 0.00519087 159 4 1 3.79116e-07 
-0.0984038 -0.037951 -2.68801 0.0025 0.968195 0.955752 2.46792 0.00516425 160 4 1 -7.4704e-08 
-0.0958281 -0.03257 -2.20127 0.0025 0.972717 0.962012 2.47251 0.00514024 161 4 1 2.43089e-07 
-0.0932635 -0.0276021 -2.48463 0.0025 0.977113 0.96815 2.47695 0.00511712 162 4 1 1.36198e-06 
-0.0907109 -0.0211823 -3.51077 0.0025 0.982293 0.975328 2.48224 0.00509013 163 4 1 4.60092e-07 
-0.0881734 -0.0142154 -2.59071 0.0025 0.987485 0.982464 2.48751 0.00506337 164 4 1 -1.47903e-06 
-0.0856476 -0.0106484 -0.912189 0.0025 0.991052 0.987491 2.49101 0.00504514 165 4 1 5.37699e-07 
-0.0831282 -0.00706316 -2.8378 0.0025 0.994785 0.992818 2.49474 0.00502621 166 4 1 2.97453e-06 
-0.0806213 0.00111976 -4.58604 0.0025 1.00076 1.00108 2.50084 0.0049962 167 4 1 -2.86346e-07 
-0.0781319 0.00839753 -2.02199 0.0025 1.00613 1.00847 2.50622 0.00496954 168 4 1 -3.07099e-06 
-0.0756518 0.00988979 0.364946 0.0025 1.00828 1.01158 2.50824 0.00495893 169 4 1 3.25422e-08 
-0.073173 0.0109532 -1.80896 0.0025 1.01018 1.0144 2.51009 0.00494963 170 4 1 3.12499e-06 
-0.0707021 0.0174611 -4.06819 0.0025 1.01478 1.02079 2.51478 0.00492717 171 4 1 1.81895e-08 
-0.0682458 0.0237625 -1.76857 0.0025 1.0193 1.027 2.51928 0.00490535 172 4 1 -2.77194e-06 
-0.0657967 0.0249111 0.16577 0.0025 1.02077 1.02912 2.52069 0.00489826 173 3 1 -1.4804e-06 
-0.0633475 0.0242439 0.452819 0.0025 1.02036 1.0286 2.52026 0.00490025 174 4 1 -3.19152e-07 
-0.0608965 0.0232208 0.523798 0.0025 1.01949 1.0274 2.5194 0.00490439 175 4 1 -1.18114e-07 
-0.0584431 0.0220573 0.578689 0.0025 1.01846 1.02594 2.51838 0.00490937 176 4 1 -1.20022e-07 
-0.0559871 0.0207143 0.673778 0.0025 1.01726 1.02424 2.51719 0.00491517 177 4 1 -1.3096e-07 
-0.053528 0.0191456 0.787023 0.0025 1.01587 1.02229 2.51582 0.00492187 178 4 1 -1.05811e-07 
-0.0510652 0.0173616 0.886791 0.0025 1.01432 1.02011 2.51428 0.00492939 179 4 1 -4.93399e-08 
-0.0485986 0.0154244 0.950133 0.0025 1.01267 1.01778 2.51263 0.00493745 180 4 1 1.93903e-08 
-0.0461278 0.0134219 0.968108 0.0025 1.01098 1.01541 2.51095 0.00494571 181 4 1 8.3044e-08 
-0.0436529 0.0114443 0.943054 0.0025 1.00932 1.01308 2.5093 0.00495382 182 4 1 1.31537e-07 
-0.041174 0.00956809 0.88364 0.0025 1.00777 1.0109 2.50775 0.00496146 183 4 1 1.61791e-07 
-0.0386914 0.00784887 0.800672 0.0025 1.00635 1.00891 2.50634 0.00496845 184 4 1 1.75249e-07 
-0.0362055 0.0063208 0.704492 0.0025 1.0051 1.00715 2.50509 0.00497463 185 4 1 1.75389e-07 
-0.0337168 0.00499911 0.60376 0.0025 1.00402 1.00564 2.50401 0.00497997 186 4 1 1.66101e-07 
-0.0312255 0.00388399 0.50508 0.0025 1.00312 1.00437 2.50311 0.00498447 187 4 1 1.5087e-07 
-0.0287323 0.00296471 0.413062 0.0025 1.00237 1.00333 2.50237 0.00498816 188 4 1 1.32494e-07 
-0.0262374 0.00222337 0.33057 0.0025 1.00178 1.00249 2.50177 0.00499114 189 4 1 1.13062e-07 
-0.0237412 0.00163807 0.259046 0.0025 1.00131 1.00183 2.5013 0.00499348 190 4 1 9.40418e-08 
-0.0212439 0.00118541 0.198835 0.0025 1.00094 1.00132 2.50094 0.00499529 191 4 1 7.63983e-08 
-0.0187459 0.000842327 0.149487 0.0025 1.00067 1.00094 2.50067 0.00499665 192 4 1 6.07073e-08 
-0.0162473 0.000587356 0.110025 0.0025 1.00047 1.00066 2.50047 0.00499767 193 4 1 4.72522e-08 
-0.0137482 0.000401381 0.0791593 0.0025 1.00032 1.00045 2.50032 0.0049984 194 4 1 3.61066e-08 
-0.0112489 0.000267951 0.0554604 0.0025 1.00022 1.0003 2.50022 0.00499892 195 4 1 2.72037e-08 
-0.00874929 0.000173283 0.0374744 0.0025 1.00015 1.0002 2.50014 0.00499927 196 4 1 2.0395e-08 
-0.00624958 0.000106019 0.0237979 0.0025 1.0001 1.00014 2.5001 0.00499951 197 4 1 1.55003e-08 
-0.00374978 5.68176e-05 0.0131111 0.0025 1.00007 1.0001 2.50007 0.00499965 198 4 1 1.2348e-08 
-0.00124993 1.78379e-05 0.00417791 0.0025 1.00006 1.00008 2.50006 0.00499971 199 4 1 1.0806e-08 
0.00124993 -1.78379e-05 -0.00417791 0.0025 1.00006 1.00008 2.50006 0.00499971 200 4 1 1.0806e-08 
0.00374978 -5.68176e-05 -0.0131111 0.0025 1.00007 1.0001 2.50007 0.00499965 201 4 1 1.2348e-08 
0.00624958 -0.000106019 -0.0237979 0.0025 1.0001 1.00014 2.5001 0.00499951 202 4 1 1.55003e-08 
0.00874929 -0.000173283 -0.0374744 0.0025 1.00015 1.0002 2.50014 0.00499927 203 4 1 2.0395e-08 
0.0112489 -0.000267951 -0.0554604 0.0025 1.00022 1.0003 2.50022 0.00499892 204 4 1 2.72037e-08 
0.0137482 -0.000401381 -0.0791593 0.0025 1.00032 1.00045 2.50032 0.0049984 205 4 1 3.61066e-08 
0.0162473 -0.000587356 -0.110025 0.0025 1.00047 1.00066 2.50047 0.00499767 206 4 1 4.72522e-08 
0.0187459 -0.000842327 -0.149487 0.0025 1.00067 1.00094 2.50067 0.00499665 207 4 1 6.07073e-08 
0.0212439 -0.00118541 -0.198835 0.0025 1.00094 1.00132 2.50094 0.00499529 208 4 1 7.63983e-08 
0.0237412 -0.00163807 -0.259046 0.0025 1.00131 1.00183 2.5013 0.00499348 209 4 1 9.40418e-08 
0.0262374 -0.00222337 -0.33057 0.0025 1.00178 1.00249 2.50177 0.00499114 210 4 1 1.13062e-07 
0.0287323 -0.00296471 -0.413062 0.0025 1.00237 1.00333 2.50237 0.00498816 211 4 1 1.32494e-07 
