# Time [s]: 0.353001
# Columns: pos [m], vel [m/s], acc [m/s^2], mass [kg], dens [kg/m^3], pres [Pa], ene [J/kg], sml [m], id, neighbor, alpha, gradh, ...additional?
1.26462 -0.673084 0.000209087 0.0025 0.511054 0.432731 2.15251 0.0097837 0 4 1 -0.000134225 
1.2694 -0.673085 0.000216908 0.0025 0.536912 0.426194 1.95005 0.00931252 1 4 1 0.000179253 
1.27394 -0.673086 0.000225929 0.0025 0.548241 0.430863 1.96851 0.00912007 2 3 1 -1.90585e-05 
1.27852 -0.673087 0.000236839 0.0025 0.545976 0.429199 1.96465 0.00915791 3 5 1 3.48571e-06 
1.2831 -0.673088 0.000249224 0.0025 0.546374 0.429353 1.96459 0.00915124 4 4 1 -1.38706e-07 
1.28767 -0.673089 0.000262535 0.0025 0.546385 0.429324 1.96435 0.00915106 5 4 1 1.43704e-07 
1.29225 -0.67309 0.000276532 0.0025 0.546408 0.429322 1.96429 0.00915068 6 4 1 -3.53876e-09 
1.29683 -0.673092 0.000291616 0.0025 0.546421 0.429319 1.96423 0.00915046 7 4 1 8.20483e-09 
1.3014 -0.673093 0.000308586 0.0025 0.546434 0.429318 1.96418 0.00915023 8 4 1 4.73038e-09 
1.30598 -0.673095 0.000327904 0.0025 0.546446 0.429317 1.96413 0.00915003 9 4 1 5.43783e-09 
1.31055 -0.673096 0.000349075 0.0025 0.546457 0.429316 1.96409 0.00914985 10 4 1 -2.28121e-09 
1.31513 -0.673098 0.000370819 0.0025 0.546468 0.429315 1.96404 0.00914967 11 4 1 4.68595e-09 
1.3197 -0.6731 0.00039215 0.0025 0.546478 0.429314 1.96401 0.00914951 12 4 1 2.80886e-09 
1.32428 -0.673102 0.000413603 0.0025 0.546486 0.429313 1.96397 0.00914937 13 4 1 3.52887e-09 
1.32885 -0.673104 0.000437436 0.0025 0.546493 0.429312 1.96394 0.00914925 14 4 1 2.07187e-09 
1.33342 -0.673107 0.000466274 0.0025 0.5465 0.429311 1.96391 0.00914913 15 4 1 -1.63887e-09 
1.338 -0.673109 0.000500979 0.0025 0.546506 0.429309 1.96388 0.00914903 16 4 1 4.83575e-09 
1.34257 -0.673112 0.000539476 0.0025 0.546512 0.429308 1.96386 0.00914894 17 4 1 1.41078e-09 
1.34715 -0.673114 0.000577805 0.0025 0.546516 0.429307 1.96383 0.00914886 18 4 1 -1.26037e-09 
1.35172 -0.673117 0.00061299 0.0025 0.546521 0.429305 1.96381 0.00914878 19 4 1 2.64348e-09 
1.3563 -0.673121 0.000645692 0.0025 0.546525 0.429303 1.96379 0.00914871 20 4 1 1.12123e-09 
1.36087 -0.673124 0.00068051 0.0025 0.546528 0.429302 1.96377 0.00914866 21 4 1 1.14069e-09 
1.36545 -0.673128 0.000723493 0.0025 0.546531 0.4293 1.96375 0.00914861 22 4 1 9.90441e-10 
1.37002 -0.673132 0.000778512 0.0025 0.546533 0.429298 1.96373 0.00914857 23 4 1 -2.62705e-10 
1.37459 -0.673136 0.000844996 0.0025 0.546536 0.429296 1.96371 0.00914854 24 4 1 1.36528e-09 
1.37917 -0.67314 0.000918478 0.0025 0.546537 0.429293 1.9637 0.00914851 25 4 1 6.13259e-10 
1.38374 -0.673145 0.000993372 0.0025 0.546538 0.429291 1.96368 0.00914849 26 4 1 -4.82785e-10 
1.38832 -0.67315 0.00106608 0.0025 0.546539 0.429288 1.96367 0.00914847 27 4 1 1.10985e-09 
1.39289 -0.673156 0.00113664 0.0025 0.54654 0.429285 1.96365 0.00914847 28 3 1 7.58609e-10 
1.39747 -0.673162 0.00120827 0.0025 0.54654 0.429282 1.96364 0.00914847 29 4 1 -8.79118e-10 
1.40204 -0.673168 0.00128472 0.0025 0.54654 0.429279 1.96362 0.00914847 30 4 1 3.77094e-10 
1.40661 -0.673176 0.00136601 0.0025 0.546539 0.429276 1.96361 0.00914848 31 4 1 1.8219e-09 
1.41119 -0.673183 0.00144391 0.0025 0.546538 0.429272 1.9636 0.0091485 32 4 1 -9.97131e-10 
1.41576 -0.673192 0.00150091 0.0025 0.546536 0.429268 1.96358 0.00914852 33 4 1 -9.19842e-10 
1.42034 -0.673201 0.0015171 0.0025 0.546535 0.429264 1.96357 0.00914854 34 4 1 2.11702e-09 
1.42491 -0.673212 0.00148582 0.0025 0.546533 0.42926 1.96356 0.00914857 35 4 1 -1.09518e-10 
1.42948 -0.673224 0.00143 0.0025 0.546531 0.429256 1.96355 0.0091486 36 4 1 -7.41866e-10 
1.43406 -0.673238 0.00140499 0.0025 0.54653 0.429252 1.96353 0.00914863 37 4 1 1.46692e-09 
1.43863 -0.673254 0.00147914 0.0025 0.546528 0.429247 1.96352 0.00914867 38 4 1 -1.19312e-10 
1.44321 -0.673271 0.00170114 0.0025 0.546525 0.429243 1.96351 0.00914871 39 4 1 -1.30998e-09 
1.44778 -0.673289 0.00207701 0.0025 0.546522 0.429238 1.9635 0.00914876 40 4 1 -2.48594e-10 
1.45236 -0.673308 0.00257344 0.0025 0.546518 0.429232 1.96348 0.00914882 41 4 1 -8.29988e-10 
1.45693 -0.673327 0.00314105 0.0025 0.546513 0.429225 1.96347 0.00914891 42 4 1 -2.09507e-09 
1.46151 -0.673346 0.00373631 0.0025 0.546507 0.429216 1.96345 0.00914902 43 4 1 -1.56744e-09 
1.46608 -0.673365 0.00432976 0.0025 0.546498 0.429206 1.96343 0.00914916 44 4 1 -6.11794e-10 
1.47065 -0.673386 0.00490663 0.0025 0.546489 0.429194 1.96342 0.00914932 45 4 1 -1.93302e-09 
1.47523 -0.673408 0.00547042 0.0025 0.546478 0.42918 1.96339 0.0091495 46 4 1 -2.28412e-09 
1.4798 -0.673432 0.00604654 0.0025 0.546465 0.429165 1.96337 0.00914971 47 4 1 -1.04208e-09 
1.48438 -0.673459 0.00667474 0.0025 0.546451 0.429148 1.96334 0.00914995 48 4 1 -1.52227e-09 
1.48895 -0.673488 0.00738749 0.0025 0.546435 0.42913 1.96332 0.00915022 49 4 1 -2.64885e-09 
1.49353 -0.673521 0.00819203 0.0025 0.546418 0.429109 1.96329 0.00915051 50 4 1 -2.60033e-09 
1.4981 -0.673558 0.0090785 0.0025 0.546398 0.429087 1.96325 0.00915084 51 4 1 -1.92735e-09 
-0.49732 -0.673598 0.0100526 0.0025 0.546376 0.429061 1.96322 0.00915121 52 4 1 -2.95204e-09 
-0.492744 -0.673644 0.0111583 0.0025 0.546351 0.429033 1.96318 0.00915163 53 4 1 -4.11155e-09 
-0.488168 -0.673696 0.0124594 0.0025 0.546323 0.429002 1.96313 0.00915209 54 4 1 -3.80921e-09 
-0.483592 -0.673754 0.013989 0.0025 0.546292 0.428967 1.96308 0.00915261 55 4 1 -3.79596e-09 
-0.479016 -0.673819 0.0157159 0.0025 0.546257 0.428927 1.96303 0.0091532 56 4 1 -5.32562e-09 
-0.474439 -0.673892 0.0175718 0.0025 0.546218 0.428883 1.96297 0.00915386 57 4 1 -6.05313e-09 
-0.469862 -0.673974 0.0195242 0.0025 0.546174 0.428834 1.9629 0.00915459 58 4 1 -5.07493e-09 
-0.465284 -0.674065 0.0216289 0.0025 0.546125 0.428779 1.96283 0.00915541 59 4 1 -5.64879e-09 
-0.460706 -0.674168 0.0239832 0.0025 0.546071 0.428719 1.96275 0.00915632 60 4 1 -6.69837e-09 
-0.456128 -0.674281 0.026559 0.0025 0.546012 0.428653 1.96266 0.00915731 61 4 1 -6.53611e-09 
-0.451549 -0.674403 0.0290495 0.0025 0.545947 0.428581 1.96256 0.0091584 62 4 1 -5.01517e-09 
-0.446969 -0.674535 0.0309989 0.0025 0.545877 0.428504 1.96246 0.00915957 63 4 1 -3.41027e-09 
-0.442389 -0.674675 0.0322313 0.0025 0.545805 0.428424 1.96235 0.00916079 64 4 1 -1.4193e-09 
-0.437809 -0.674822 0.0329813 0.0025 0.545731 0.428342 1.96224 0.00916203 65 4 1 1.25063e-09 
-0.433227 -0.67497 0.0332601 0.0025 0.545657 0.428261 1.96213 0.00916326 66 4 1 4.0133e-09 
-0.428645 -0.67511 0.0323862 0.0025 0.545587 0.428183 1.96203 0.00916444 67 4 1 8.05362e-09 
-0.424063 -0.675235 0.02928 0.0025 0.545523 0.428113 1.96193 0.00916551 68 4 1 1.41237e-08 
-0.41948 -0.67534 0.0237115 0.0025 0.545471 0.428055 1.96185 0.00916639 69 4 1 2.152e-08 
-0.414897 -0.675418 0.0161295 0.0025 0.545437 0.428017 1.9618 0.00916697 70 4 1 2.74269e-08 
-0.410313 -0.67545 0.00216332 0.0025 0.545425 0.428003 1.96178 0.00916717 71 5 1 1.98021e-08 
-0.405729 -0.675475 0.0102919 0.0025 0.545431 0.428011 1.96179 0.00916707 72 4 1 9.37152e-08 
-0.401146 -0.675384 -0.0582578 0.0025 0.545515 0.42811 1.96191 0.00916565 73 4 1 2.44317e-07 
-0.396564 -0.674859 -0.175975 0.0025 0.545798 0.428422 1.96231 0.00916091 74 4 1 3.12837e-07 
-0.391985 -0.673848 -0.274314 0.0025 0.546328 0.429007 1.96307 0.00915201 75 4 1 3.81921e-07 
-0.387412 -0.672368 -0.406515 0.0025 0.54715 0.42992 1.96425 0.00913826 76 4 1 6.79278e-07 
-0.382847 -0.669962 -0.705773 0.0025 0.548461 0.431371 1.96612 0.00911642 77 4 1 1.03448e-06 
-0.378295 -0.666145 -1.05234 0.0025 0.550457 0.43357 1.96898 0.00908337 78 4 1 1.16093e-06 
-0.373763 -0.660986 -1.33415 0.0025 0.553124 0.436507 1.97279 0.00903957 79 4 1 1.09499e-06 
-0.369256 -0.654889 -1.51049 0.0025 0.556303 0.440017 1.97732 0.00898791 80 4 1 1.02456e-06 
-0.364775 -0.648172 -1.64692 0.0025 0.55985 0.443947 1.98235 0.00893097 81 4 1 1.08039e-06 
-0.360325 -0.640901 -1.79607 0.0025 0.563724 0.448255 1.98783 0.00886959 82 4 1 1.2155e-06 
-0.355906 -0.633055 -1.9621 0.0025 0.56794 0.452957 1.99376 0.00880374 83 4 1 1.36174e-06 
-0.351521 -0.62454 -2.13795 0.0025 0.572515 0.458072 2.00017 0.00873339 84 4 1 1.44798e-06 
-0.347172 -0.615464 -2.28497 0.0025 0.577423 0.463575 2.00701 0.00865917 85 4 1 1.45462e-06 
-0.342861 -0.605957 -2.39626 0.0025 0.582591 0.46939 2.01418 0.00858235 86 4 1 1.38604e-06 
-0.33859 -0.596218 -2.45099 0.0025 0.587924 0.475411 2.02153 0.00850451 87 4 1 1.26664e-06 
-0.334357 -0.586463 -2.46115 0.0025 0.593317 0.481523 2.02892 0.00842721 88 4 1 1.16144e-06 
-0.330162 -0.576811 -2.45151 0.0025 0.5987 0.487648 2.03627 0.00835143 89 4 1 1.0729e-06 
-0.326005 -0.567339 -2.42452 0.0025 0.604031 0.493737 2.0435 0.00827772 90 4 1 1.02146e-06 
-0.321884 -0.558025 -2.41016 0.0025 0.609299 0.499775 2.05061 0.00820615 91 4 1 9.56235e-07 
-0.317799 -0.548918 -2.36828 0.0025 0.614491 0.505746 2.05758 0.00813682 92 4 1 8.97429e-07 
-0.313747 -0.540038 -2.33976 0.0025 0.619594 0.511636 2.0644 0.0080698 93 4 1 8.82964e-07 
-0.309729 -0.531333 -2.32145 0.0025 0.624628 0.517465 2.07109 0.00800477 94 4 1 8.51205e-07 
-0.305742 -0.522795 -2.29594 0.0025 0.629597 0.523238 2.07766 0.00794158 95 4 1 8.13576e-07 
-0.301787 -0.514443 -2.27102 0.0025 0.6345 0.528951 2.08412 0.00788021 96 4 1 8.03494e-07 
-0.297862 -0.506209 -2.26048 0.0025 0.639352 0.534622 2.09048 0.00782042 97 4 1 8.00795e-07 
-0.293967 -0.498095 -2.25178 0.0025 0.644168 0.54027 2.09676 0.00776195 98 4 1 8.00569e-07 
-0.2901 -0.49006 -2.25253 0.0025 0.648964 0.545911 2.10299 0.00770459 99 4 1 8.34319e-07 
-0.286262 -0.482039 -2.27909 0.0025 0.653773 0.551583 2.10921 0.00764792 100 4 1 8.50357e-07 
-0.282452 -0.474029 -2.29207 0.0025 0.658609 0.557305 2.11544 0.00759175 101 4 1 8.75826e-07 
-0.27867 -0.466009 -2.33251 0.0025 0.663492 0.5631 2.12169 0.00753589 102 4 1 9.50971e-07 
-0.274916 -0.457871 -2.40272 0.0025 0.668465 0.569017 2.12804 0.00747982 103 4 1 9.535e-07 
-0.27119 -0.449617 -2.42946 0.0025 0.673521 0.57505 2.13446 0.00742368 104 4 1 9.33129e-07 
-0.267492 -0.441363 -2.46463 0.0025 0.678633 0.581171 2.14093 0.00736775 105 4 1 9.71108e-07 
-0.263822 -0.433008 -2.5201 0.0025 0.68382 0.587399 2.14746 0.00731187 106 4 1 9.69546e-07 
-0.26018 -0.424592 -2.54801 0.0025 0.689073 0.593724 2.15404 0.00725613 107 4 1 9.38775e-07 
-0.256566 -0.416184 -2.56893 0.0025 0.694363 0.600115 2.16064 0.00720084 108 4 1 9.23908e-07 
-0.252979 -0.407781 -2.58688 0.0025 0.699678 0.606555 2.16724 0.00714614 109 4 1 9.07556e-07 
-0.24942 -0.399411 -2.5999 0.0025 0.705008 0.613033 2.17383 0.00709211 110 4 1 8.78391e-07 
-0.245887 -0.39108 -2.59954 0.0025 0.710338 0.619531 2.18039 0.0070389 111 4 1 8.61433e-07 
-0.242381 -0.382855 -2.60697 0.0025 0.715663 0.626042 2.18691 0.00698653 112 4 1 8.7242e-07 
-0.2389 -0.374613 -2.62884 0.0025 0.720996 0.632582 2.19342 0.00693486 113 4 1 8.39775e-07 
-0.235446 -0.36644 -2.61557 0.0025 0.726322 0.639134 2.19988 0.006884 114 4 1 8.0775e-07 
-0.232016 -0.35838 -2.61615 0.0025 0.731627 0.645679 2.2063 0.00683409 115 4 1 8.27077e-07 
-0.228612 -0.350333 -2.6374 0.0025 0.736933 0.652244 2.21268 0.00678488 116 4 1 8.05306e-07 
-0.225231 -0.342339 -2.62824 0.0025 0.742234 0.658821 2.21904 0.00673642 117 4 1 7.67997e-07 
-0.221875 -0.334432 -2.62134 0.0025 0.747509 0.665386 2.22533 0.00668888 118 4 1 7.66392e-07 
-0.218542 -0.326611 -2.62491 0.0025 0.752769 0.671951 2.23158 0.00664214 119 4 1 7.83343e-07 
-0.215233 -0.31882 -2.64729 0.0025 0.758036 0.678542 2.23781 0.00659599 120 4 1 7.8582e-07 
-0.211946 -0.311029 -2.66152 0.0025 0.763315 0.685164 2.24403 0.00655038 121 4 1 7.12673e-07 
-0.208682 -0.303354 -2.61683 0.0025 0.76856 0.691765 2.25019 0.00650567 122 4 1 7.093e-07 
-0.205441 -0.295779 -2.63955 0.0025 0.773778 0.698351 2.25628 0.0064618 123 4 1 7.72623e-07 
-0.202221 -0.288155 -2.67853 0.0025 0.779025 0.704988 2.26239 0.00641828 124 4 1 7.15993e-07 
-0.199022 -0.280587 -2.64721 0.0025 0.784264 0.711632 2.26847 0.0063754 125 4 1 6.49823e-07 
-0.195845 -0.273164 -2.62243 0.0025 0.789452 0.718233 2.27446 0.00633351 126 4 1 6.92002e-07 
-0.192689 -0.265808 -2.65357 0.0025 0.794632 0.724842 2.28041 0.00629222 127 4 1 7.40388e-07 
-0.189553 -0.258385 -2.692 0.0025 0.799849 0.731511 2.28639 0.00625118 128 4 1 6.79558e-07 
-0.186437 -0.251023 -2.65993 0.0025 0.805059 0.738189 2.29234 0.00621072 129 4 1 6.28526e-07 
-0.183342 -0.243766 -2.64908 0.0025 0.810228 0.744833 2.29821 0.0061711 130 4 1 6.43741e-07 
-0.180266 -0.2366 -2.65157 0.0025 0.815378 0.751472 2.30404 0.00613212 131 4 1 6.83362e-07 
-0.17721 -0.229411 -2.69484 0.0025 0.820549 0.758151 2.30987 0.00609348 132 4 1 6.68854e-07 
-0.174173 -0.222223 -2.68806 0.0025 0.825732 0.764862 2.3157 0.00605523 133 4 1 5.91948e-07 
-0.171154 -0.215153 -2.65023 0.0025 0.830872 0.771535 2.32145 0.00601777 134 4 1 5.78851e-07 
-0.168155 -0.208197 -2.64248 0.0025 0.835969 0.778171 2.32714 0.00598108 135 4 1 6.37338e-07 
-0.165173 -0.201251 -2.68554 0.0025 0.84108 0.784842 2.33282 0.00594474 136 4 1 6.78176e-07 
-0.16221 -0.194233 -2.729 0.0025 0.84624 0.791589 2.33853 0.00590849 137 4 1 6.00871e-07 
-0.159265 -0.187258 -2.68496 0.0025 0.851388 0.798335 2.34421 0.00587276 138 4 1 5.11229e-07 
-0.156337 -0.180479 -2.63242 0.0025 0.856458 0.805 2.34979 0.005838 139 4 1 5.5926e-07 
-0.153427 -0.173771 -2.66308 0.0025 0.861504 0.811652 2.35531 0.00580381 140 4 1 6.69099e-07 
-0.150533 -0.166958 -2.75159 0.0025 0.866619 0.818406 2.3609 0.00576955 141 4 1 6.31308e-07 
-0.147657 -0.160089 -2.73658 0.0025 0.871772 0.825219 2.3665 0.00573545 142 4 1 4.53435e-07 
-0.144798 -0.153445 -2.61651 0.0025 0.876819 0.831916 2.37197 0.00570243 143 4 1 4.49847e-07 
-0.141955 -0.147006 -2.61553 0.0025 0.881775 0.838512 2.37732 0.00567038 144 4 1 6.24671e-07 
-0.139127 -0.140481 -2.72733 0.0025 0.886796 0.845209 2.38273 0.00563827 145 4 1 6.99909e-07 
-0.136316 -0.133725 -2.81308 0.0025 0.891942 0.852076 2.38825 0.00560575 146 4 1 5.07496e-07 
-0.133522 -0.127078 -2.68312 0.0025 0.897046 0.858903 2.39371 0.00557385 147 4 1 3.47421e-07 
-0.130742 -0.120764 -2.58224 0.0025 0.901983 0.865533 2.39897 0.00554334 148 4 1 4.8155e-07 
-0.127978 -0.114556 -2.64922 0.0025 0.906888 0.872138 2.40417 0.00551336 149 4 1 6.95436e-07 
-0.125229 -0.108073 -2.8242 0.0025 0.911945 0.878952 2.40953 0.00548279 150 4 1 6.24569e-07 
-0.122495 -0.101463 -2.79169 0.0025 0.917085 0.885885 2.41496 0.00545205 151 4 1 3.40912e-07 
-0.119777 -0.0951661 -2.60618 0.0025 0.922065 0.892624 2.42019 0.00542261 152 4 1 2.82876e-07 
-0.117073 -0.0892028 -2.53088 0.0025 0.926856 0.899134 2.42521 0.00539458 153 4 1 5.43517e-07 
-0.114382 -0.0831828 -2.70673 0.0025 0.931704 0.905732 2.43027 0.00536651 154 4 1 7.05486e-07 
-0.111706 -0.0768073 -2.8349 0.0025 0.936749 0.912599 2.43553 0.00533761 155 4 1 5.28594e-07 
-0.109045 -0.0704259 -2.76069 0.0025 0.941822 0.919516 2.4408 0.00530886 156 4 1 2.95269e-07 
-0.106397 -0.0643655 -2.59389 0.0025 0.946719 0.926216 2.44587 0.0052814 157 4 1 2.93056e-07 
-0.103763 -0.0586087 -2.55108 0.0025 0.95146 0.932724 2.45076 0.00525508 158 4 1 4.97074e-07 
-0.101142 -0.0527312 -2.67838 0.0025 0.956247 0.939305 2.45568 0.00522878 159 4 1 6.20881e-07 
-0.0985345 -0.046683 -2.79737 0.0025 0.96119 0.946109 2.46075 0.00520188 160 4 1 5.67264e-07 
-0.0959403 -0.0404399 -2.83991 0.0025 0.966211 0.953022 2.4659 0.00517486 161 4 1 1.71144e-07 
-0.0933596 -0.0345726 -2.44765 0.0025 0.970973 0.959588 2.47075 0.00514947 162 4 1 -1.55952e-07 
-0.0907908 -0.029627 -2.08718 0.0025 0.975259 0.965552 2.47508 0.00512684 163 4 1 7.67114e-07 
-0.0882327 -0.0243843 -2.97217 0.0025 0.979867 0.971984 2.47975 0.00510273 164 4 1 1.44137e-06 
-0.085688 -0.0171503 -3.51024 0.0025 0.985311 0.979481 2.48531 0.00507454 165 4 1 -6.97287e-07 
-0.0831581 -0.0115194 -1.52052 0.0025 0.989811 0.985703 2.48982 0.00505147 166 4 1 -1.1765e-06 
-0.0806365 -0.00895467 -1.29926 0.0025 0.992943 0.990193 2.49288 0.00503554 167 4 1 2.0594e-06 
-0.0781226 -0.00347029 -3.95988 0.0025 0.997586 0.996721 2.49759 0.0050121 168 4 1 2.18743e-06 
-0.0756244 0.00529478 -3.91254 0.0025 1.00379 1.00525 2.5039 0.00498112 169 4 1 -2.02257e-06 
-0.0731414 0.0101419 -0.705768 0.0025 1.00781 1.01083 2.50785 0.00496126 170 4 1 -2.40433e-06 
-0.0706631 0.0103559 0.122455 0.0025 1.00921 1.01297 2.50913 0.00495435 171 4 1 1.78861e-06 
-0.068187 0.0134059 -3.14789 0.0025 1.01208 1.01707 2.51202 0.00494032 172 4 1 2.49106e-06 
-0.0657228 0.0208428 -3.47383 0.0025 1.01711 1.02398 2.51712 0.00491591 173 4 1 -1.73233e-06 
-0.0632711 0.024758 -0.529564 0.0025 1.02033 1.02846 2.52028 0.00490039 174 4 1 -2.4955e-06 
-0.0608224 0.0246816 0.339774 0.0025 1.02067 1.02902 2.52057 0.00489875 175 3 1 -7.77183e-07 
-0.0583723 0.0237499 0.52394 0.0025 1.01994 1.02802 2.51984 0.00490226 176 4 1 -1.83196e-07 
-0.0559201 0.0226087 0.569125 0.0025 1.01895 1.02663 2.51886 0.00490702 177 4 1 -1.0175e-07 
-0.0534653 0.0213289 0.636916 0.0025 1.01781 1.02502 2.51774 0.0049125 178 4 1 -1.11669e-07 
-0.0510076 0.0198651 0.731746 0.0025 1.01651 1.02319 2.51645 0.00491877 179 4 1 -1.09238e-07 
-0.0485465 0.0181952 0.832115 0.0025 1.01505 1.02114 2.515 0.00492585 180 4 1 -7.34596e-08 
-0.0460818 0.0163488 0.910828 0.0025 1.01346 1.0189 2.51342 0.00493359 181 4 1 -1.4967e-08 
-0.043613 0.0143948 0.951362 0.0025 1.0118 1.01656 2.51177 0.00494169 182 4 1 4.89623e-08 
-0.0411401 0.0124189 0.94911 0.0025 1.01014 1.01423 2.51012 0.00494981 183 4 1 1.04344e-07 
-0.0386631 0.0105028 0.908557 0.0025 1.00854 1.01199 2.50853 0.00495765 184 4 1 1.4393e-07 
-0.0361824 0.00871265 0.838893 0.0025 1.00706 1.00991 2.50705 0.00496493 185 4 1 1.6632e-07 
-0.0336982 0.0070939 0.750519 0.0025 1.00573 1.00804 2.50572 0.0049715 186 4 1 1.7366e-07 
-0.0312109 0.00567188 0.652948 0.0025 1.00457 1.00641 2.50456 0.00497725 187 4 1 1.69529e-07 
-0.028721 0.00445482 0.553879 0.0025 1.00358 1.00502 2.50357 0.00498216 188 4 1 1.57613e-07 
-0.0262287 0.00343784 0.458975 0.0025 1.00276 1.00387 2.50275 0.00498626 189 4 1 1.41087e-07 
-0.0237347 0.0026069 0.372005 0.0025 1.00209 1.00293 2.50208 0.00498959 190 4 1 1.22425e-07 
-0.0212392 0.00194228 0.295132 0.0025 1.00155 1.00218 2.50155 0.00499226 191 4 1 1.03432e-07 
-0.0187424 0.00142142 0.229236 0.0025 1.00113 1.00159 2.50113 0.00499433 192 4 1 8.53453e-08 
-0.0162448 0.00102107 0.174237 0.0025 1.00082 1.00115 2.50081 0.00499592 193 4 1 6.89628e-08 
-0.0137465 0.000718843 0.129369 0.0025 1.00058 1.00081 2.50058 0.00499711 194 4 1 5.4749e-08 
-0.0112477 0.000494099 0.093419 0.0025 1.0004 1.00057 2.5004 0.00499798 195 4 1 4.29304e-08 
-0.00874853 0.000328465 0.0649044 0.0025 1.00028 1.0004 2.50028 0.00499859 196 4 1 3.35743e-08 
-0.00624911 0.000205883 0.0422095 0.0025 1.0002 1.00028 2.5002 0.00499901 197 4 1 2.66529e-08 
-0.00374953 0.000112384 0.0236691 0.0025 1.00015 1.00021 2.50015 0.00499926 198 4 1 2.20968e-08 
-0.00124985 3.56392e-05 0.00761416 0.0025 1.00012 1.00017 2.50012 0.00499938 199 4 1 1.98347e-08 
0.00124985 -3.56392e-05 -0.00761416 0.0025 1.00012 1.00017 2.50012 0.00499938 200 4 1 1.98347e-08 
0.00374953 -0.000112384 -0.0236691 0.0025 1.00015 1.00021 2.50015 0.00499926 201 4 1 2.20968e-08 
0.00624911 -0.000205883 -0.0422095 0.0025 1.0002 1.00028 2.5002 0.00499901 202 4 1 2.66529e-08 
0.00874853 -0.000328465 -0.0649044 0.0025 1.00028 1.0004 2.50028 0.00499859 203 4 1 3.35743e-08 
0.0112477 -0.000494099 -0.093419 0.0025 1.0004 1.00057 2.5004 0.00499798 204 4 1 4.29304e-08 
0.0137465 -0.000718843 -0.129369 0.0025 1.00058 1.00081 2.50058 0.00499711 205 4 1 5.4749e-08 
0.0162448 -0.00102107 -0.174237 0.0025 1.00082 1.00115 2.50081 0.00499592 206 4 1 6.89628e-08 
0.0187424 -0.00142142 -0.229236 0.0025 1.00113 1.00159 2.50113 0.00499433 207 4 1 8.53453e-08 
0.0212392 -0.00194228 -0.295132 0.0025 1.00155 1.00218 2.50155 0.00499226 208 4 1 1.03432e-07 
0.0237347 -0.0026069 -0.372005 0.0025 1.00209 1.00293 2.50208 0.00498959 209 4 1 1.22425e-07 
0.0262287 -0.00343784 -0.458975 0.0025 1.00276 1.00387 2.50275 0.00498626 210 4 1 1.41087e-07 
0.028721 -0.00445482 -0.553879 0.0025 1.00358 1.00502 2.50357 0.00498216 211 4 1 1.57613e-07 
