# Time [s]: 0.355472
# Columns: pos [m], vel [m/s], acc [m/s^2], mass [kg], dens [kg/m^3], pres [Pa], ene [J/kg], sml [m], id, neighbor, alpha, gradh, ...additional?
1.26296 -0.673084 0.000199751 0.0025 0.511054 0.432731 2.15251 0.00978369 0 4 1 -0.000134225 
1.26774 -0.673085 0.000207585 0.0025 0.536912 0.426194 1.95005 0.00931252 1 4 1 0.000179253 
1.27228 -0.673086 0.000216591 0.0025 0.548242 0.430864 1.96851 0.00912007 2 3 1 -1.90585e-05 
1.27686 -0.673086 0.000227218 0.0025 0.545977 0.429199 1.96465 0.0091579 3 5 1 3.4857e-06 
1.28144 -0.673087 0.00023892 0.0025 0.546375 0.429354 1.96459 0.00915123 4 4 1 -1.38704e-07 
1.28601 -0.673089 0.000251311 0.0025 0.546385 0.429324 1.96435 0.00915105 5 4 1 1.43706e-07 
1.29059 -0.67309 0.000264502 0.0025 0.546408 0.429322 1.9643 0.00915067 6 4 1 -3.53663e-09 
1.29516 -0.673091 0.000279123 0.0025 0.546421 0.429319 1.96423 0.00915045 7 4 1 8.20636e-09 
1.29974 -0.673092 0.000295799 0.0025 0.546435 0.429318 1.96418 0.00915022 8 4 1 4.7317e-09 
1.30431 -0.673094 0.000314477 0.0025 0.546447 0.429317 1.96413 0.00915002 9 4 1 5.44003e-09 
1.30889 -0.673095 0.000334248 0.0025 0.546458 0.429317 1.96409 0.00914984 10 4 1 -2.27743e-09 
1.31346 -0.673097 0.000354026 0.0025 0.546468 0.429316 1.96404 0.00914966 11 4 1 4.69072e-09 
1.31804 -0.673099 0.00037369 0.0025 0.546478 0.429315 1.96401 0.0091495 12 4 1 2.81271e-09 
1.32261 -0.673101 0.000394716 0.0025 0.546487 0.429314 1.96397 0.00914936 13 4 1 3.52998e-09 
1.32719 -0.673103 0.000419497 0.0025 0.546494 0.429313 1.96394 0.00914923 14 4 1 2.07032e-09 
1.33176 -0.673105 0.000449557 0.0025 0.546501 0.429311 1.96391 0.00914912 15 4 1 -1.64042e-09 
1.33634 -0.673108 0.000483994 0.0025 0.546507 0.42931 1.96388 0.00914901 16 4 1 4.83801e-09 
1.34091 -0.67311 0.000519597 0.0025 0.546512 0.429309 1.96386 0.00914892 17 4 1 1.41897e-09 
1.34548 -0.673113 0.000552938 0.0025 0.546517 0.429308 1.96383 0.00914884 18 4 1 -1.24776e-09 
1.35006 -0.673116 0.000583108 0.0025 0.546522 0.429306 1.96381 0.00914877 19 4 1 2.65584e-09 
1.35463 -0.673119 0.000613006 0.0025 0.546526 0.429304 1.96379 0.0091487 20 4 1 1.12856e-09 
1.35921 -0.673122 0.000648045 0.0025 0.546529 0.429303 1.96377 0.00914864 21 4 1 1.14147e-09 
1.36378 -0.673126 0.000693009 0.0025 0.546532 0.429301 1.96375 0.00914859 22 4 1 9.8767e-10 
1.36836 -0.67313 0.000749223 0.0025 0.546535 0.429299 1.96373 0.00914855 23 4 1 -2.63352e-10 
1.37293 -0.673134 0.000813895 0.0025 0.546537 0.429297 1.96372 0.00914851 24 4 1 1.37164e-09 
1.3775 -0.673138 0.000881938 0.0025 0.546539 0.429295 1.9637 0.00914849 25 4 1 6.27996e-10 
1.38208 -0.673143 0.000948908 0.0025 0.54654 0.429293 1.96368 0.00914846 26 4 1 -4.62187e-10 
1.38665 -0.673148 0.00101326 0.0025 0.546541 0.42929 1.96367 0.00914845 27 4 1 1.13179e-09 
1.39123 -0.673153 0.00107678 0.0025 0.546541 0.429287 1.96365 0.00914844 28 4 1 7.78377e-10 
1.3958 -0.673159 0.00114282 0.0025 0.546541 0.429284 1.96364 0.00914844 29 4 1 -8.61066e-10 
1.40038 -0.673165 0.00121281 0.0025 0.546541 0.429281 1.96363 0.00914844 30 3 1 3.99905e-10 
1.40495 -0.673172 0.00128187 0.0025 0.546541 0.429278 1.96361 0.00914844 31 4 1 1.86121e-09 
1.40952 -0.67318 0.00133633 0.0025 0.54654 0.429274 1.9636 0.00914846 32 4 1 -9.30185e-10 
1.4141 -0.673188 0.00135725 0.0025 0.546539 0.429271 1.96359 0.00914848 33 4 1 -8.25522e-10 
1.41867 -0.673198 0.00133228 0.0025 0.546538 0.429267 1.96357 0.00914849 34 4 1 2.21752e-09 
1.42325 -0.673209 0.00127154 0.0025 0.546537 0.429263 1.96356 0.00914852 35 4 1 -4.2763e-11 
1.42782 -0.673221 0.00121616 0.0025 0.546535 0.42926 1.96355 0.00914854 36 4 1 -7.48057e-10 
1.4324 -0.673235 0.0012284 0.0025 0.546534 0.429256 1.96354 0.00914856 37 4 1 1.3762e-09 
1.43697 -0.673251 0.00136481 0.0025 0.546532 0.429253 1.96353 0.00914859 38 4 1 -2.65193e-10 
1.44154 -0.673267 0.00164915 0.0025 0.54653 0.429249 1.96352 0.00914862 39 4 1 -1.4545e-09 
1.44612 -0.673284 0.00206451 0.0025 0.546528 0.429244 1.9635 0.00914867 40 4 1 -3.39617e-10 
1.45069 -0.673301 0.00256798 0.0025 0.546524 0.429238 1.96349 0.00914873 41 4 1 -8.42967e-10 
1.45527 -0.673319 0.00311313 0.0025 0.546518 0.429231 1.96348 0.00914882 42 4 1 -2.03275e-09 
1.45984 -0.673337 0.00366398 0.0025 0.546512 0.429222 1.96346 0.00914893 43 4 1 -1.4459e-09 
1.46442 -0.673355 0.00419874 0.0025 0.546504 0.429212 1.96344 0.00914906 44 4 1 -4.51615e-10 
1.46899 -0.673374 0.004712 0.0025 0.546495 0.4292 1.96342 0.00914922 45 4 1 -1.7592e-09 
1.47357 -0.673395 0.0052184 0.0025 0.546484 0.429188 1.9634 0.00914939 46 4 1 -2.12217e-09 
1.47814 -0.673418 0.00574989 0.0025 0.546472 0.429173 1.96338 0.00914959 47 4 1 -9.03484e-10 
1.48271 -0.673443 0.00634036 0.0025 0.546459 0.429157 1.96336 0.00914982 48 4 1 -1.39164e-09 
1.48729 -0.673471 0.00700618 0.0025 0.546444 0.42914 1.96333 0.00915007 49 4 1 -2.49303e-09 
1.49187 -0.673501 0.00774321 0.0025 0.546427 0.42912 1.9633 0.00915035 50 4 1 -2.3999e-09 
1.49644 -0.673536 0.00854881 0.0025 0.546409 0.429099 1.96327 0.00915066 51 4 1 -1.70035e-09 
-0.498984 -0.673574 0.00944906 0.0025 0.546388 0.429075 1.96323 0.00915101 52 4 1 -2.73781e-09 
-0.494409 -0.673618 0.0104981 0.0025 0.546365 0.429048 1.9632 0.00915139 53 4 1 -3.92369e-09 
-0.489833 -0.673666 0.011742 0.0025 0.546339 0.429019 1.96315 0.00915183 54 4 1 -3.60706e-09 
-0.485257 -0.673721 0.0131791 0.0025 0.54631 0.428986 1.96311 0.00915232 55 4 1 -3.51495e-09 
-0.480681 -0.673781 0.0147623 0.0025 0.546277 0.428949 1.96306 0.00915287 56 4 1 -4.95124e-09 
-0.476104 -0.67385 0.0164534 0.0025 0.54624 0.428907 1.963 0.00915349 57 4 1 -5.67062e-09 
-0.471527 -0.673927 0.0182855 0.0025 0.546199 0.428861 1.96294 0.00915418 58 4 1 -4.83143e-09 
-0.46695 -0.674014 0.0203596 0.0025 0.546153 0.42881 1.96287 0.00915494 59 4 1 -5.62779e-09 
-0.462372 -0.67411 0.0227324 0.0025 0.546102 0.428753 1.96279 0.0091558 60 4 1 -6.8061e-09 
-0.457794 -0.674217 0.0252618 0.0025 0.546046 0.42869 1.96271 0.00915675 61 4 1 -6.58706e-09 
-0.453215 -0.674333 0.027614 0.0025 0.545984 0.428622 1.96261 0.00915778 62 4 1 -5.06789e-09 
-0.448636 -0.67446 0.0295501 0.0025 0.545917 0.428547 1.96251 0.0091589 63 4 1 -3.96176e-09 
-0.444057 -0.674597 0.0311828 0.0025 0.545846 0.42847 1.96241 0.00916009 64 4 1 -2.94159e-09 
-0.439476 -0.674741 0.0326806 0.0025 0.545774 0.428389 1.9623 0.00916131 65 4 1 -1.01185e-09 
-0.434895 -0.674887 0.0336835 0.0025 0.5457 0.428307 1.96219 0.00916255 66 4 1 1.70539e-09 
-0.430314 -0.675028 0.0333289 0.0025 0.545627 0.428226 1.96208 0.00916377 67 4 1 6.04659e-09 
-0.425731 -0.67516 0.0308417 0.0025 0.545559 0.428151 1.96198 0.00916492 68 4 1 1.19051e-08 
-0.421149 -0.675278 0.0263022 0.0025 0.5455 0.428087 1.9619 0.0091659 69 4 1 1.79633e-08 
-0.416566 -0.675373 0.0197543 0.0025 0.545457 0.428039 1.96183 0.00916663 70 4 1 2.60769e-08 
-0.411982 -0.675436 0.00962048 0.0025 0.545434 0.428013 1.9618 0.00916701 71 4 1 1.98638e-08 
-0.407399 -0.675451 0.00639148 0.0025 0.545429 0.428008 1.96179 0.00916709 72 5 1 3.52909e-08 
-0.402815 -0.675461 -0.00700851 0.0025 0.545455 0.42804 1.96182 0.00916667 73 4 1 1.5897e-07 
-0.398232 -0.67521 -0.107776 0.0025 0.545611 0.428216 1.96204 0.00916404 74 4 1 2.90543e-07 
-0.393651 -0.674465 -0.223888 0.0025 0.546001 0.428645 1.9626 0.0091575 75 4 1 3.2634e-07 
-0.389074 -0.673251 -0.317299 0.0025 0.546646 0.429359 1.96352 0.00914668 76 4 1 4.81119e-07 
-0.384504 -0.671468 -0.519056 0.0025 0.547649 0.430473 1.96496 0.00912993 77 4 1 8.33598e-07 
-0.379944 -0.668497 -0.849482 0.0025 0.549234 0.432223 1.96723 0.00910359 78 4 1 1.10962e-06 
-0.375401 -0.664101 -1.17997 0.0025 0.551517 0.434737 1.9705 0.0090659 79 4 1 1.14114e-06 
-0.370879 -0.658505 -1.41273 0.0025 0.554411 0.437926 1.97463 0.00901857 80 4 1 1.04866e-06 
-0.366382 -0.652138 -1.56373 0.0025 0.557745 0.441612 1.97937 0.00896467 81 4 1 1.02929e-06 
-0.361914 -0.645223 -1.7031 0.0025 0.561417 0.445688 1.98457 0.00890603 82 4 1 1.10796e-06 
-0.357476 -0.637758 -1.8465 0.0025 0.565409 0.450132 1.9902 0.00884316 83 4 1 1.25864e-06 
-0.35307 -0.629684 -2.02468 0.0025 0.569744 0.454972 1.99629 0.00877587 84 4 1 1.38958e-06 
-0.3487 -0.620989 -2.18487 0.0025 0.57443 0.460217 2.00284 0.00870428 85 4 1 1.43754e-06 
-0.344366 -0.611786 -2.31897 0.0025 0.579418 0.465817 2.00978 0.00862935 86 4 1 1.41944e-06 
-0.34007 -0.602227 -2.40835 0.0025 0.584629 0.471688 2.01699 0.00855243 87 4 1 1.32521e-06 
-0.335813 -0.592524 -2.44274 0.0025 0.589962 0.477718 2.02433 0.00847513 88 4 1 1.21054e-06 
-0.331595 -0.582864 -2.4452 0.0025 0.595324 0.483804 2.03167 0.00839879 89 4 1 1.10485e-06 
-0.327414 -0.573325 -2.42156 0.0025 0.600653 0.489877 2.03892 0.00832427 90 4 1 1.03972e-06 
-0.323271 -0.563979 -2.40643 0.0025 0.605927 0.495908 2.04606 0.00825182 91 4 1 9.90074e-07 
-0.319162 -0.554785 -2.38027 0.0025 0.611136 0.501886 2.05308 0.00818148 92 4 1 9.20544e-07 
-0.315089 -0.545822 -2.34268 0.0025 0.616264 0.50779 2.05995 0.00811341 93 4 1 8.82093e-07 
-0.311049 -0.537068 -2.31931 0.0025 0.621311 0.513622 2.06668 0.0080475 94 4 1 8.64992e-07 
-0.307041 -0.528476 -2.30079 0.0025 0.626294 0.519398 2.07329 0.00798348 95 4 1 8.21959e-07 
-0.303065 -0.52005 -2.26874 0.0025 0.631208 0.525112 2.07979 0.00792132 96 4 1 7.99332e-07 
-0.29912 -0.511789 -2.2552 0.0025 0.636061 0.530774 2.08617 0.00786088 97 4 1 7.94791e-07 
-0.295204 -0.503646 -2.24188 0.0025 0.64087 0.5364 2.09246 0.0078019 98 4 1 7.84004e-07 
-0.291318 -0.4956 -2.23415 0.0025 0.645645 0.542005 2.09868 0.00774419 99 4 1 8.05435e-07 
-0.28746 -0.487635 -2.24923 0.0025 0.650414 0.547619 2.10487 0.00768742 100 4 1 8.33746e-07 
-0.28363 -0.479664 -2.26956 0.0025 0.655203 0.553273 2.11105 0.00763123 101 4 1 8.41064e-07 
-0.279829 -0.471711 -2.28646 0.0025 0.66002 0.558978 2.11725 0.00757552 102 4 1 8.80196e-07 
-0.276055 -0.463726 -2.33379 0.0025 0.664892 0.564765 2.12348 0.00752001 103 4 1 9.477e-07 
-0.272309 -0.455588 -2.40013 0.0025 0.669858 0.570677 2.12981 0.00746427 104 4 1 9.33015e-07 
-0.26859 -0.44739 -2.41773 0.0025 0.674896 0.576695 2.13621 0.00740855 105 4 1 9.25831e-07 
-0.2649 -0.439167 -2.46325 0.0025 0.679991 0.5828 2.14264 0.00735304 106 4 1 9.65171e-07 
-0.261237 -0.430848 -2.51301 0.0025 0.685163 0.589014 2.14915 0.00729753 107 4 1 9.47812e-07 
-0.257602 -0.42249 -2.53517 0.0025 0.690392 0.595315 2.15569 0.00724226 108 4 1 9.22192e-07 
-0.253995 -0.414137 -2.5571 0.0025 0.695653 0.601676 2.16225 0.00718749 109 4 1 9.06127e-07 
-0.250415 -0.4058 -2.57048 0.0025 0.700936 0.608082 2.1688 0.00713332 110 4 1 8.96258e-07 
-0.246861 -0.397496 -2.59036 0.0025 0.706234 0.614526 2.17534 0.0070798 111 4 1 8.54049e-07 
-0.243335 -0.389248 -2.57338 0.0025 0.711525 0.620981 2.18185 0.00702716 112 4 1 8.47184e-07 
-0.239834 -0.381074 -2.5966 0.0025 0.71681 0.627448 2.18831 0.00697535 113 4 1 8.66781e-07 
-0.236359 -0.372902 -2.61228 0.0025 0.72211 0.633951 2.19477 0.00692416 114 4 1 8.13668e-07 
-0.23291 -0.364809 -2.59237 0.0025 0.727394 0.640455 2.20118 0.00687385 115 4 1 7.96698e-07 
-0.229485 -0.35681 -2.60226 0.0025 0.732659 0.646954 2.20754 0.00682446 116 4 1 8.15039e-07 
-0.226085 -0.34882 -2.61647 0.0025 0.737927 0.653475 2.21388 0.00677574 117 4 1 7.91793e-07 
-0.22271 -0.3409 -2.61306 0.0025 0.743188 0.660007 2.22018 0.00672777 118 4 1 7.58165e-07 
-0.219357 -0.333068 -2.60332 0.0025 0.748427 0.66653 2.22642 0.00668067 119 4 1 7.52488e-07 
-0.216029 -0.32531 -2.60786 0.0025 0.75365 0.673052 2.23262 0.00663438 120 4 1 7.76663e-07 
-0.212723 -0.317584 -2.6344 0.0025 0.758883 0.679603 2.23881 0.00658863 121 4 1 7.648e-07 
-0.20944 -0.30984 -2.63518 0.0025 0.764121 0.686178 2.24498 0.00654346 122 4 1 6.95768e-07 
-0.206179 -0.302239 -2.59869 0.0025 0.769323 0.692726 2.25108 0.00649922 123 4 1 7.09752e-07 
-0.202941 -0.29472 -2.6268 0.0025 0.774506 0.699271 2.25713 0.00645573 124 4 1 7.58686e-07 
-0.199724 -0.287148 -2.65737 0.0025 0.779717 0.705865 2.2632 0.00641258 125 4 1 7.03289e-07 
-0.196528 -0.279649 -2.63131 0.0025 0.784918 0.712463 2.26922 0.00637009 126 4 1 6.39108e-07 
-0.193354 -0.27229 -2.60166 0.0025 0.790069 0.719019 2.27517 0.00632856 127 4 1 6.83432e-07 
-0.190199 -0.264985 -2.63953 0.0025 0.795213 0.725583 2.28108 0.00628763 128 4 1 7.25849e-07 
-0.187066 -0.257607 -2.6674 0.0025 0.800391 0.732205 2.28701 0.00624694 129 4 1 6.73711e-07 
-0.183952 -0.250313 -2.64957 0.0025 0.805566 0.738839 2.29291 0.00620682 130 4 1 6.20157e-07 
-0.180859 -0.24311 -2.62645 0.0025 0.8107 0.74544 2.29875 0.00616751 131 4 1 6.29247e-07 
-0.177785 -0.235999 -2.63521 0.0025 0.815813 0.752032 2.30453 0.00612886 132 4 1 6.7553e-07 
-0.17473 -0.228861 -2.67479 0.0025 0.820947 0.758665 2.31032 0.00609053 133 4 1 6.57763e-07 
-0.171694 -0.221726 -2.66955 0.0025 0.826092 0.765328 2.3161 0.00605259 134 4 1 5.86403e-07 
-0.168677 -0.214707 -2.63415 0.0025 0.831197 0.771957 2.32182 0.00601542 135 4 1 5.69222e-07 
-0.165679 -0.207801 -2.62323 0.0025 0.836259 0.778549 2.32746 0.00597901 136 4 1 6.24899e-07 
-0.162698 -0.200909 -2.66505 0.0025 0.841333 0.785171 2.3331 0.00594295 137 4 1 6.71302e-07 
-0.159736 -0.193943 -2.71181 0.0025 0.846456 0.791871 2.33877 0.00590698 138 4 1 5.9515e-07 
-0.156791 -0.187016 -2.66757 0.0025 0.85157 0.798574 2.34442 0.00587151 139 4 1 5.05237e-07 
-0.153864 -0.180273 -2.6176 0.0025 0.856608 0.805197 2.34995 0.00583697 140 4 1 5.48066e-07 
-0.150954 -0.173626 -2.64184 0.0025 0.861619 0.811803 2.35544 0.00580303 141 4 1 6.52827e-07 
-0.148061 -0.166874 -2.72638 0.0025 0.866693 0.818503 2.36098 0.00576906 142 4 1 6.28274e-07 
-0.145185 -0.160041 -2.72221 0.0025 0.871809 0.825269 2.36654 0.0057352 143 4 1 4.62158e-07 
-0.142326 -0.153432 -2.61085 0.0025 0.876833 0.831933 2.37199 0.00570234 144 4 1 4.32379e-07 
-0.139483 -0.147024 -2.58825 0.0025 0.881756 0.838486 2.3773 0.0056705 145 4 1 5.97511e-07 
-0.136655 -0.140576 -2.69681 0.0025 0.886729 0.845118 2.38266 0.0056387 146 4 1 6.95148e-07 
-0.133844 -0.133872 -2.79119 0.0025 0.89183 0.851926 2.38813 0.00560645 147 4 1 5.29618e-07 
-0.131049 -0.127254 -2.68879 0.0025 0.896914 0.858726 2.39357 0.00557467 148 4 1 3.49161e-07 
-0.128269 -0.120947 -2.5692 0.0025 0.901838 0.865336 2.39881 0.00554424 149 4 1 4.45972e-07 
-0.125505 -0.114809 -2.61631 0.0025 0.906702 0.871886 2.40398 0.00551449 150 4 1 6.6635e-07 
-0.122755 -0.108416 -2.78416 0.0025 0.911701 0.878623 2.40927 0.00548426 151 4 1 6.34487e-07 
-0.12002 -0.101836 -2.78311 0.0025 0.9168 0.885501 2.41466 0.00545375 152 4 1 3.78234e-07 
-0.117301 -0.0955155 -2.62227 0.0025 0.921776 0.892232 2.41989 0.00542431 153 4 1 2.66078e-07 
-0.114596 -0.0895744 -2.50491 0.0025 0.926552 0.898718 2.42489 0.00539635 154 4 1 4.85962e-07 
-0.111905 -0.0836329 -2.65453 0.0025 0.931338 0.905234 2.42989 0.00536862 155 4 1 6.95005e-07 
-0.109227 -0.0773585 -2.80802 0.0025 0.936321 0.912017 2.43509 0.00534005 156 4 1 5.68064e-07 
-0.106564 -0.0710002 -2.7696 0.0025 0.941374 0.918905 2.44034 0.00531138 157 4 1 3.12845e-07 
-0.103916 -0.0649006 -2.59559 0.0025 0.946272 0.925603 2.44541 0.00528389 158 4 1 2.7295e-07 
-0.101281 -0.0591677 -2.5358 0.0025 0.950996 0.932085 2.45028 0.00525765 159 4 1 4.50865e-07 
-0.0986582 -0.053361 -2.62564 0.0025 0.955728 0.93859 2.45515 0.00523162 160 4 1 5.84397e-07 
-0.0960489 -0.0474164 -2.74409 0.0025 0.960595 0.945289 2.46014 0.00520511 161 4 1 5.98179e-07 
-0.093453 -0.0412499 -2.83939 0.0025 0.965579 0.952155 2.46525 0.00517824 162 4 1 3.16792e-07 
-0.0908706 -0.03524 -2.58986 0.0025 0.970424 0.95883 2.4702 0.00515238 163 4 1 -2.01716e-07 
-0.0883006 -0.0301255 -2.02636 0.0025 0.974747 0.964829 2.47456 0.00512954 164 4 1 4.07436e-07 
-0.0857411 -0.0253445 -2.63048 0.0025 0.979098 0.970917 2.47896 0.00510674 165 4 1 1.59072e-06 
-0.0831938 -0.0184293 -3.66069 0.0025 0.984427 0.978278 2.48441 0.00507909 166 4 1 -7.93726e-08 
-0.0806619 -0.0119694 -2.04133 0.0025 0.98934 0.985038 2.48937 0.00505388 167 4 1 -1.555e-06 
-0.0781399 -0.00912146 -0.925486 0.0025 0.992544 0.989599 2.4925 0.00503756 168 4 1 1.18575e-06 
-0.0756243 -0.00494411 -3.25313 0.0025 0.996507 0.995224 2.49648 0.00501753 169 4 1 2.77383e-06 
-0.0731224 0.00347829 -4.37072 0.0025 1.00257 1.00359 2.50266 0.00498719 170 4 1 -9.181e-07 
-0.0706371 0.00987693 -1.51949 0.0025 1.00744 1.01031 2.50752 0.00496306 171 4 1 -2.96811e-06 
-0.0681593 0.0108167 0.413797 0.0025 1.0092 1.01289 2.50914 0.00495444 172 4 1 5.85453e-07 
-0.0656827 0.012223 -2.20454 0.0025 1.01125 1.01591 2.51117 0.00494437 173 4 1 3.01263e-06 
-0.0632149 0.0190747 -3.87618 0.0025 1.01592 1.02237 2.51593 0.00492163 174 4 1 -7.07169e-07 
-0.060761 0.0243364 -1.13775 0.0025 1.01984 1.02777 2.51982 0.00490272 175 4 1 -2.71935e-06 
-0.0583122 0.0248135 0.251684 0.0025 1.02073 1.02908 2.52064 0.00489845 176 3 1 -1.14616e-06 
-0.0558625 0.0239652 0.517754 0.0025 1.02011 1.02825 2.52001 0.00490145 177 4 1 -2.51838e-07 
-0.0534107 0.0228192 0.578383 0.0025 1.01913 1.02688 2.51904 0.00490615 178 4 1 -9.99598e-08 
-0.0509564 0.0215418 0.633102 0.0025 1.018 1.02529 2.51792 0.00491158 179 4 1 -9.80045e-08 
-0.0484992 0.0201051 0.715558 0.0025 1.01673 1.0235 2.51667 0.00491773 180 4 1 -1.01156e-07 
-0.0460387 0.0184795 0.809012 0.0025 1.01531 1.02149 2.51525 0.00492463 181 4 1 -7.60694e-08 
-0.0435745 0.0166792 0.888951 0.0025 1.01375 1.0193 2.51371 0.00493218 182 4 1 -2.57631e-08 
-0.0411065 0.0147605 0.936399 0.0025 1.01211 1.017 2.51208 0.00494016 183 4 1 3.46826e-08 
-0.0386344 0.0128019 0.943526 0.0025 1.01046 1.01468 2.51044 0.00494823 184 4 1 9.07853e-08 
-0.0361582 0.0108841 0.912058 0.0025 1.00886 1.01244 2.50884 0.00495608 185 4 1 1.33499e-07 
-0.0336783 0.0090761 0.84965 0.0025 1.00736 1.01033 2.50735 0.00496345 186 4 1 1.59742e-07 
-0.0311948 0.00742775 0.766197 0.0025 1.00601 1.00843 2.506 0.00497014 187 4 1 1.70605e-07 
-0.0287081 0.00596897 0.67134 0.0025 1.00481 1.00675 2.50481 0.00497605 188 4 1 1.6923e-07 
-0.0262187 0.00471191 0.573169 0.0025 1.00379 1.00532 2.50378 0.00498112 189 4 1 1.59254e-07 
-0.023727 0.00365468 0.477794 0.0025 1.00293 1.00412 2.50293 0.00498538 190 4 1 1.43979e-07 
-0.0212334 0.00278529 0.389381 0.0025 1.00223 1.00313 2.50223 0.00498887 191 4 1 1.26058e-07 
-0.0187382 0.00208522 0.310399 0.0025 1.00167 1.00234 2.50167 0.00499166 192 4 1 1.07467e-07 
-0.0162417 0.0015324 0.241946 0.0025 1.00123 1.00173 2.50123 0.00499386 193 4 1 8.96011e-08 
-0.0137443 0.00110345 0.184057 0.0025 1.00089 1.00125 2.50089 0.00499554 194 4 1 7.33923e-08 
-0.0112462 0.000775271 0.13599 0.0025 1.00064 1.0009 2.50064 0.0049968 195 4 1 5.9429e-08 
-0.0087475 0.00052602 0.0964633 0.0025 1.00046 1.00064 2.50046 0.00499771 196 4 1 4.80546e-08 
-0.00624846 0.000335584 0.0638378 0.0025 1.00033 1.00047 2.50033 0.00499833 197 4 1 3.94474e-08 
-0.00374917 0.000185623 0.0362572 0.0025 1.00026 1.00036 2.50026 0.00499872 198 4 1 3.36848e-08 
-0.00124974 5.92874e-05 0.011743 0.0025 1.00022 1.00031 2.50022 0.0049989 199 4 1 3.07885e-08 
0.00124974 -5.92874e-05 -0.011743 0.0025 1.00022 1.00031 2.50022 0.0049989 200 4 1 3.07885e-08 
0.00374917 -0.000185623 -0.0362572 0.0025 1.00026 1.00036 2.50026 0.00499872 201 4 1 3.36848e-08 
0.00624846 -0.000335584 -0.0638378 0.0025 1.00033 1.00047 2.50033 0.00499833 202 4 1 3.94474e-08 
0.0087475 -0.00052602 -0.0964633 0.0025 1.00046 1.00064 2.50046 0.00499771 203 4 1 4.80546e-08 
0.0112462 -0.000775271 -0.13599 0.0025 1.00064 1.0009 2.50064 0.0049968 204 4 1 5.9429e-08 
0.0137443 -0.00110345 -0.184057 0.0025 1.00089 1.00125 2.50089 0.00499554 205 4 1 7.33923e-08 
0.0162417 -0.0015324 -0.241946 0.0025 1.00123 1.00173 2.50123 0.00499386 206 4 1 8.96011e-08 
0.0187382 -0.00208522 -0.310399 0.0025 1.00167 1.00234 2.50167 0.00499166 207 4 1 1.07467e-07 
0.0212334 -0.00278529 -0.389381 0.0025 1.00223 1.00313 2.50223 0.00498887 208 4 1 1.26058e-07 
0.023727 -0.00365468 -0.477794 0.0025 1.00293 1.00412 2.50293 0.00498538 209 4 1 1.43979e-07 
0.0262187 -0.00471191 -0.573169 0.0025 1.00379 1.00532 2.50378 0.00498112 210 4 1 1.59254e-07 
0.0287081 -0.00596897 -0.67134 0.0025 1.00481 1.00675 2.50481 0.00497605 211 4 1 1.6923e-07 
