# Time [s]: 0.356708
# Columns: pos [m], vel [m/s], acc [m/s^2], mass [kg], dens [kg/m^3], pres [Pa], ene [J/kg], sml [m], id, neighbor, alpha, gradh, ...additional?
1.26213 -0.673084 0.000195268 0.0025 0.511055 0.432731 2.15251 0.00978369 0 4 1 -0.000134225 
1.26691 -0.673084 0.000203123 0.0025 0.536912 0.426194 1.95005 0.00931251 1 4 1 0.000179253 
1.27145 -0.673085 0.000212082 0.0025 0.548242 0.430864 1.96851 0.00912006 2 3 1 -1.90585e-05 
1.27603 -0.673086 0.000222498 0.0025 0.545977 0.429199 1.96465 0.0091579 3 5 1 3.4857e-06 
1.2806 -0.673087 0.000233823 0.0025 0.546375 0.429354 1.96459 0.00915123 4 4 1 -1.38703e-07 
1.28518 -0.673088 0.000245796 0.0025 0.546385 0.429324 1.96435 0.00915105 5 4 1 1.43707e-07 
1.28976 -0.673089 0.000258686 0.0025 0.546408 0.429323 1.9643 0.00915067 6 4 1 -3.53577e-09 
1.29433 -0.673091 0.000273146 0.0025 0.546421 0.42932 1.96423 0.00915045 7 4 1 8.207e-09 
1.29891 -0.673092 0.000289629 0.0025 0.546435 0.429319 1.96418 0.00915022 8 4 1 4.73249e-09 
1.30348 -0.673094 0.000307835 0.0025 0.546447 0.429318 1.96413 0.00915002 9 4 1 5.44145e-09 
1.30806 -0.673095 0.000326775 0.0025 0.546458 0.429317 1.96409 0.00914983 10 4 1 -2.2753e-09 
1.31263 -0.673097 0.000345617 0.0025 0.546469 0.429316 1.96405 0.00914966 11 4 1 4.69293e-09 
1.31721 -0.673099 0.00036471 0.0025 0.546478 0.429315 1.96401 0.00914949 12 4 1 2.81401e-09 
1.32178 -0.673101 0.000385847 0.0025 0.546487 0.429314 1.96397 0.00914935 13 4 1 3.52985e-09 
1.32635 -0.673103 0.000411219 0.0025 0.546494 0.429313 1.96394 0.00914923 14 4 1 2.06936e-09 
1.33093 -0.673105 0.000441637 0.0025 0.546501 0.429312 1.96391 0.00914912 15 4 1 -1.64059e-09 
1.3355 -0.673107 0.000475431 0.0025 0.546507 0.429311 1.96388 0.00914901 16 4 1 4.84023e-09 
1.34008 -0.67311 0.000509175 0.0025 0.546513 0.429309 1.96386 0.00914892 17 4 1 1.42387e-09 
1.34465 -0.673112 0.000540059 0.0025 0.546518 0.429308 1.96383 0.00914884 18 4 1 -1.24167e-09 
1.34923 -0.673115 0.00056827 0.0025 0.546522 0.429306 1.96381 0.00914876 19 4 1 2.66071e-09 
1.3538 -0.673118 0.000597533 0.0025 0.546526 0.429305 1.96379 0.00914869 20 4 1 1.13051e-09 
1.35838 -0.673122 0.000633202 0.0025 0.54653 0.429303 1.96377 0.00914863 21 4 1 1.14075e-09 
1.36295 -0.673125 0.000679123 0.0025 0.546533 0.429302 1.96375 0.00914858 22 4 1 9.86404e-10 
1.36752 -0.673129 0.00073539 0.0025 0.546535 0.4293 1.96373 0.00914854 23 4 1 -2.62439e-10 
1.3721 -0.673133 0.000798444 0.0025 0.546537 0.429298 1.96372 0.0091485 24 4 1 1.37642e-09 
1.37667 -0.673137 0.000863284 0.0025 0.546539 0.429296 1.9637 0.00914848 25 4 1 6.36443e-10 
1.38125 -0.673142 0.000926264 0.0025 0.54654 0.429293 1.96368 0.00914845 26 4 1 -4.5183e-10 
1.38582 -0.673147 0.000986828 0.0025 0.546542 0.429291 1.96367 0.00914844 27 4 1 1.14195e-09 
1.3904 -0.673152 0.00104729 0.0025 0.546542 0.429288 1.96365 0.00914843 28 4 1 7.87384e-10 
1.39497 -0.673158 0.00111058 0.0025 0.546542 0.429285 1.96364 0.00914842 29 4 1 -8.51699e-10 
1.39954 -0.673164 0.00117638 0.0025 0.546542 0.429282 1.96363 0.00914842 30 3 1 4.14076e-10 
1.40412 -0.673171 0.00123717 0.0025 0.546542 0.429279 1.96361 0.00914843 31 4 1 1.8861e-09 
1.40869 -0.673178 0.00127733 0.0025 0.546541 0.429276 1.9636 0.00914844 32 4 1 -8.91284e-10 
1.41327 -0.673187 0.00127912 0.0025 0.54654 0.429272 1.96359 0.00914845 33 4 1 -7.77221e-10 
1.41784 -0.673196 0.00123605 0.0025 0.54654 0.429269 1.96358 0.00914847 34 4 1 2.26031e-09 
1.42242 -0.673207 0.00116718 0.0025 0.546538 0.429265 1.96356 0.00914849 35 4 1 -2.58174e-11 
1.42699 -0.67322 0.00112049 0.0025 0.546537 0.429262 1.96355 0.00914851 36 4 1 -7.70986e-10 
1.43156 -0.673234 0.00115763 0.0025 0.546536 0.429259 1.96354 0.00914852 37 4 1 1.31655e-09 
1.43614 -0.673249 0.00132615 0.0025 0.546535 0.429255 1.96353 0.00914855 38 4 1 -3.40486e-10 
1.44071 -0.673265 0.00163755 0.0025 0.546533 0.429251 1.96352 0.00914858 39 4 1 -1.51766e-09 
1.44529 -0.673282 0.00206631 0.0025 0.54653 0.429246 1.96351 0.00914863 40 4 1 -3.70521e-10 
1.44986 -0.673298 0.00256762 0.0025 0.546526 0.429241 1.9635 0.00914869 41 4 1 -8.35616e-10 
1.45444 -0.673315 0.00309769 0.0025 0.546521 0.429233 1.96348 0.00914878 42 4 1 -1.99169e-09 
1.45901 -0.673332 0.00362432 0.0025 0.546515 0.429225 1.96346 0.00914889 43 4 1 -1.38017e-09 
1.46358 -0.67335 0.00412986 0.0025 0.546507 0.429215 1.96345 0.00914901 44 4 1 -3.72463e-10 
1.46816 -0.673368 0.00461406 0.0025 0.546498 0.429204 1.96343 0.00914917 45 4 1 -1.67952e-09 
1.47273 -0.673389 0.00509636 0.0025 0.546487 0.429191 1.96341 0.00914934 46 4 1 -2.05211e-09 
1.47731 -0.673411 0.00560941 0.0025 0.546476 0.429177 1.96338 0.00914953 47 4 1 -8.4307e-10 
1.48188 -0.673435 0.00618173 0.0025 0.546463 0.429162 1.96336 0.00914975 48 4 1 -1.3289e-09 
1.48646 -0.673462 0.00682239 0.0025 0.546448 0.429144 1.96334 0.00915 49 4 1 -2.41379e-09 
1.49103 -0.673492 0.00752554 0.0025 0.546432 0.429126 1.96331 0.00915027 50 4 1 -2.30258e-09 
1.49561 -0.673525 0.00829545 0.0025 0.546414 0.429105 1.96328 0.00915057 51 4 1 -1.59927e-09 
-0.499817 -0.673563 0.00916657 0.0025 0.546394 0.429081 1.96324 0.00915091 52 4 1 -2.64754e-09 
-0.495241 -0.673605 0.0101919 0.0025 0.546371 0.429056 1.96321 0.00915128 53 4 1 -3.8384e-09 
-0.490665 -0.673652 0.0114042 0.0025 0.546346 0.429027 1.96316 0.0091517 54 4 1 -3.49877e-09 
-0.486089 -0.673705 0.0127874 0.0025 0.546318 0.428995 1.96312 0.00915218 55 4 1 -3.3592e-09 
-0.481513 -0.673764 0.0142958 0.0025 0.546286 0.428959 1.96307 0.00915271 56 4 1 -4.76006e-09 
-0.476937 -0.67383 0.0159139 0.0025 0.54625 0.428919 1.96302 0.00915331 57 4 1 -5.49853e-09 
-0.47236 -0.673905 0.0177032 0.0025 0.546211 0.428874 1.96295 0.00915398 58 4 1 -4.73617e-09 
-0.467783 -0.673989 0.0197674 0.0025 0.546166 0.428825 1.96289 0.00915472 59 4 1 -5.60752e-09 
-0.463205 -0.674082 0.0221231 0.0025 0.546117 0.428769 1.96281 0.00915555 60 4 1 -6.7835e-09 
-0.458627 -0.674186 0.0245841 0.0025 0.546062 0.428708 1.96273 0.00915647 61 4 1 -6.5104e-09 
-0.454049 -0.674299 0.0268533 0.0025 0.546001 0.428641 1.96264 0.00915749 62 4 1 -5.06064e-09 
-0.44947 -0.674424 0.0288222 0.0025 0.545936 0.428569 1.96254 0.00915858 63 4 1 -4.28282e-09 
-0.44489 -0.674559 0.0306768 0.0025 0.545867 0.428492 1.96244 0.00915974 64 4 1 -3.68619e-09 
-0.44031 -0.674701 0.0324771 0.0025 0.545795 0.428412 1.96233 0.00916095 65 4 1 -1.95518e-09 
-0.435729 -0.674845 0.0337161 0.0025 0.545721 0.42833 1.96222 0.00916219 66 4 1 8.28091e-10 
-0.431148 -0.674987 0.0335461 0.0025 0.545647 0.428249 1.96211 0.00916343 67 4 1 5.16432e-09 
-0.426566 -0.675122 0.0314078 0.0025 0.545577 0.428172 1.96201 0.0091646 68 4 1 1.07624e-08 
-0.421983 -0.675245 0.0273314 0.0025 0.545516 0.428104 1.96192 0.00916563 69 4 1 1.65765e-08 
-0.4174 -0.675348 0.021348 0.0025 0.545469 0.428052 1.96185 0.00916642 70 4 1 2.31491e-08 
-0.412817 -0.675422 0.0134147 0.0025 0.545441 0.42802 1.96181 0.0091669 71 4 1 2.29746e-08 
-0.408233 -0.675444 0.00407666 0.0025 0.545432 0.42801 1.96179 0.00916705 72 5 1 2.17085e-08 
-0.40365 -0.675461 0.00595814 0.0025 0.545442 0.428024 1.9618 0.00916688 73 4 1 1.14605e-07 
-0.399066 -0.675322 -0.0735578 0.0025 0.545547 0.428145 1.96195 0.00916511 74 4 1 2.63603e-07 
-0.394485 -0.674723 -0.193755 0.0025 0.545866 0.428497 1.96241 0.00915976 75 4 1 3.20233e-07 
-0.389907 -0.673626 -0.290342 0.0025 0.546438 0.429128 1.96323 0.00915017 76 4 1 4.11646e-07 
-0.385334 -0.672062 -0.443633 0.0025 0.547321 0.430108 1.96449 0.00913541 77 4 1 7.19118e-07 
-0.380771 -0.669484 -0.74713 0.0025 0.548715 0.431651 1.96649 0.0091122 78 4 1 1.04894e-06 
-0.376222 -0.665503 -1.08867 0.0025 0.550793 0.43394 1.96946 0.00907781 79 4 1 1.14983e-06 
-0.371693 -0.660215 -1.35403 0.0025 0.553522 0.436946 1.97336 0.00903306 80 4 1 1.07555e-06 
-0.367189 -0.654045 -1.52304 0.0025 0.556739 0.440499 1.97794 0.00898087 81 4 1 1.01896e-06 
-0.362712 -0.6473 -1.65875 0.0025 0.560313 0.44446 1.98301 0.00892359 82 4 1 1.06544e-06 
-0.358265 -0.640008 -1.79569 0.0025 0.564199 0.448783 1.9885 0.00886212 83 4 1 1.20436e-06 
-0.35385 -0.63215 -1.9661 0.0025 0.568419 0.45349 1.99443 0.00879634 84 4 1 1.34871e-06 
-0.349469 -0.623656 -2.13238 0.0025 0.572989 0.458602 2.00083 0.00872617 85 4 1 1.41988e-06 
-0.345124 -0.614625 -2.27435 0.0025 0.577877 0.464085 2.00764 0.00865237 86 4 1 1.42399e-06 
-0.340816 -0.605185 -2.37916 0.0025 0.583013 0.469866 2.01476 0.00857613 87 4 1 1.35189e-06 
-0.336547 -0.595535 -2.42954 0.0025 0.588303 0.47584 2.02205 0.00849902 88 4 1 1.23567e-06 
-0.332317 -0.585881 -2.43787 0.0025 0.593646 0.481897 2.02937 0.00842253 89 4 1 1.128e-06 
-0.328125 -0.576318 -2.42293 0.0025 0.598972 0.487959 2.03664 0.00834763 90 4 1 1.04944e-06 
-0.323969 -0.566949 -2.40144 0.0025 0.604247 0.493984 2.04379 0.00827476 91 4 1 1.00184e-06 
-0.31985 -0.557729 -2.38444 0.0025 0.609462 0.499962 2.05083 0.00820396 92 4 1 9.38973e-07 
-0.315765 -0.54872 -2.34715 0.0025 0.614602 0.505874 2.05773 0.00813535 93 4 1 8.84353e-07 
-0.311714 -0.539933 -2.31852 0.0025 0.619658 0.51171 2.06448 0.00806897 94 4 1 8.65416e-07 
-0.307696 -0.531319 -2.29998 0.0025 0.624645 0.517485 2.07111 0.00800454 95 4 1 8.30918e-07 
-0.30371 -0.522855 -2.27176 0.0025 0.629566 0.523201 2.07762 0.00794197 96 4 1 8.00432e-07 
-0.299754 -0.514574 -2.25191 0.0025 0.634423 0.528861 2.08402 0.00788118 97 4 1 7.89446e-07 
-0.295828 -0.506414 -2.23764 0.0025 0.639229 0.534479 2.09032 0.00782192 98 4 1 7.83933e-07 
-0.291932 -0.498359 -2.2307 0.0025 0.644 0.540072 2.09654 0.00776398 99 4 1 7.91062e-07 
-0.288064 -0.490405 -2.23385 0.0025 0.648754 0.545663 2.10272 0.00770708 100 4 1 8.2062e-07 
-0.284225 -0.482461 -2.258 0.0025 0.65352 0.551284 2.10888 0.00765088 101 4 1 8.34467e-07 
-0.280413 -0.474527 -2.27204 0.0025 0.658313 0.556953 2.11505 0.00759517 102 4 1 8.48777e-07 
-0.27663 -0.466589 -2.30173 0.0025 0.663143 0.562685 2.12125 0.00753985 103 4 1 9.24739e-07 
-0.272873 -0.458538 -2.37454 0.0025 0.668057 0.568531 2.12752 0.00748439 104 4 1 9.39758e-07 
-0.269145 -0.450369 -2.40338 0.0025 0.673057 0.574496 2.13388 0.00742879 105 4 1 9.13365e-07 
-0.265444 -0.442193 -2.43514 0.0025 0.678112 0.580547 2.14027 0.00737341 106 4 1 9.47628e-07 
-0.261772 -0.433938 -2.48914 0.0025 0.683239 0.5867 2.14673 0.00731808 107 4 1 9.52126e-07 
-0.258126 -0.425613 -2.5193 0.0025 0.688432 0.592952 2.15324 0.00726288 108 4 1 9.24201e-07 
-0.254509 -0.417287 -2.54071 0.0025 0.693665 0.59927 2.15977 0.00720809 109 4 1 9.06337e-07 
-0.250918 -0.408968 -2.55747 0.0025 0.698923 0.605639 2.16631 0.00715386 110 4 1 8.95803e-07 
-0.247355 -0.400689 -2.576 0.0025 0.7042 0.61205 2.17284 0.00710025 111 4 1 8.62308e-07 
-0.243818 -0.392426 -2.56978 0.0025 0.709477 0.618479 2.17933 0.00704745 112 4 1 8.39152e-07 
-0.240307 -0.38427 -2.57606 0.0025 0.714743 0.624916 2.18579 0.00699552 113 4 1 8.58728e-07 
-0.236822 -0.376124 -2.60122 0.0025 0.72002 0.631384 2.19223 0.00694425 114 4 1 8.31224e-07 
-0.233363 -0.368012 -2.59145 0.0025 0.725295 0.637869 2.19864 0.00689375 115 4 1 7.88659e-07 
-0.229928 -0.360014 -2.58374 0.0025 0.730546 0.644343 2.20499 0.0068442 116 4 1 8.06091e-07 
-0.226518 -0.352047 -2.60576 0.0025 0.735793 0.650832 2.21131 0.00679539 117 4 1 8.02738e-07 
-0.223133 -0.344126 -2.60733 0.0025 0.741043 0.657342 2.21761 0.00674724 118 4 1 7.63222e-07 
-0.219771 -0.336281 -2.59813 0.0025 0.746275 0.663848 2.22386 0.00669994 119 4 1 7.46956e-07 
-0.216433 -0.328525 -2.59591 0.0025 0.751485 0.670346 2.23006 0.00665349 120 4 1 7.54184e-07 
-0.213117 -0.320823 -2.60724 0.0025 0.75669 0.676856 2.23622 0.00660773 121 4 1 7.76387e-07 
-0.209825 -0.313099 -2.63723 0.0025 0.761911 0.683401 2.24238 0.00656245 122 4 1 7.23387e-07 
-0.206555 -0.305451 -2.60226 0.0025 0.767116 0.689945 2.24849 0.00651792 123 4 1 6.80079e-07 
-0.203307 -0.297946 -2.59596 0.0025 0.77228 0.696459 2.25454 0.00647433 124 4 1 7.42748e-07 
-0.200081 -0.290424 -2.6434 0.0025 0.777461 0.703008 2.26057 0.00643119 125 4 1 7.35378e-07 
-0.196876 -0.282906 -2.63867 0.0025 0.782658 0.709593 2.26661 0.00638849 126 4 1 6.52247e-07 
-0.193692 -0.275503 -2.60126 0.0025 0.787813 0.716145 2.27257 0.00634669 127 4 1 6.44083e-07 
-0.190529 -0.268224 -2.60257 0.0025 0.792931 0.72267 2.27846 0.00630572 128 4 1 7.16621e-07 
-0.187386 -0.260898 -2.6581 0.0025 0.798077 0.729244 2.28436 0.00626506 129 4 1 7.01201e-07 
-0.184264 -0.253586 -2.64779 0.0025 0.803244 0.735859 2.29027 0.00622476 130 4 1 6.33045e-07 
-0.181161 -0.246357 -2.63024 0.0025 0.80838 0.742454 2.29611 0.00618521 131 4 1 6.1257e-07 
-0.178078 -0.239241 -2.61298 0.0025 0.81348 0.749022 2.30189 0.00614644 132 4 1 6.48198e-07 
-0.175015 -0.23215 -2.64838 0.0025 0.81858 0.755606 2.30766 0.00610814 133 4 1 6.75418e-07 
-0.17197 -0.225026 -2.67003 0.0025 0.823709 0.76224 2.31343 0.00607011 134 4 1 6.16347e-07 
-0.168945 -0.217968 -2.64301 0.0025 0.828821 0.76887 2.31916 0.00603266 135 4 1 5.63419e-07 
-0.165938 -0.211036 -2.61443 0.0025 0.833883 0.775453 2.32482 0.00599604 136 4 1 5.85567e-07 
-0.162949 -0.204179 -2.62809 0.0025 0.838925 0.782026 2.33043 0.00596001 137 4 1 6.53634e-07 
-0.159978 -0.19728 -2.68595 0.0025 0.844005 0.788665 2.33606 0.00592413 138 4 1 6.43039e-07 
-0.157024 -0.190328 -2.69003 0.0025 0.849118 0.795358 2.34171 0.00588846 139 4 1 5.40912e-07 
-0.154089 -0.183516 -2.63273 0.0025 0.854182 0.802005 2.34729 0.00585355 140 4 1 5.02359e-07 
-0.151171 -0.176865 -2.6052 0.0025 0.859178 0.808583 2.35277 0.00581952 141 4 1 5.91772e-07 
-0.148269 -0.170209 -2.67045 0.0025 0.864189 0.815197 2.35825 0.00578577 142 4 1 6.69215e-07 
-0.145385 -0.163419 -2.7395 0.0025 0.869281 0.821924 2.3638 0.00575188 143 4 1 5.45624e-07 
-0.142517 -0.156686 -2.6575 0.0025 0.87435 0.828637 2.3693 0.00571853 144 4 1 4.17091e-07 
-0.139666 -0.150214 -2.57973 0.0025 0.879298 0.835212 2.37465 0.00568635 145 4 1 4.88285e-07 
-0.136831 -0.143851 -2.60766 0.0025 0.884204 0.84175 2.37994 0.0056548 146 4 1 6.68649e-07 
-0.134012 -0.137306 -2.75767 0.0025 0.889223 0.848446 2.38534 0.00562289 147 4 1 6.44207e-07 
-0.131208 -0.130616 -2.74925 0.0025 0.894327 0.855264 2.39081 0.0055908 148 4 1 4.24763e-07 
-0.128421 -0.124153 -2.62462 0.0025 0.89933 0.861966 2.39615 0.0055597 149 4 1 3.5175e-07 
-0.125648 -0.117994 -2.54778 0.0025 0.904185 0.868495 2.40131 0.00552984 150 4 1 5.37884e-07 
-0.122891 -0.111795 -2.67995 0.0025 0.909068 0.875075 2.40648 0.00550014 151 4 1 6.96522e-07 
-0.120148 -0.105294 -2.80514 0.0025 0.914114 0.881877 2.41182 0.00546978 152 4 1 5.33049e-07 
-0.117421 -0.098816 -2.71771 0.0025 0.919172 0.888706 2.41716 0.00543968 153 4 1 2.82854e-07 
-0.114709 -0.0926807 -2.53457 0.0025 0.924035 0.895296 2.42226 0.00541105 154 4 1 3.29444e-07 
-0.11201 -0.0868389 -2.53923 0.0025 0.928764 0.901729 2.4272 0.0053835 155 4 1 6.02219e-07 
-0.109325 -0.0807823 -2.72541 0.0025 0.933613 0.90833 2.43226 0.00535554 156 4 1 6.66499e-07 
-0.106654 -0.0744467 -2.8008 0.0025 0.938631 0.915165 2.43749 0.00532691 157 4 1 4.63238e-07 
-0.103998 -0.0681754 -2.70525 0.0025 0.943627 0.921982 2.44267 0.0052987 158 4 1 2.51262e-07 
-0.101356 -0.0622875 -2.52404 0.0025 0.948422 0.928551 2.44763 0.00527191 159 4 1 3.3412e-07 
-0.0987261 -0.0565703 -2.56913 0.0025 0.953109 0.934989 2.45245 0.00524599 160 4 1 5.1467e-07 
-0.0961096 -0.0507457 -2.64827 0.0025 0.957871 0.941539 2.45735 0.00521991 161 4 1 5.94107e-07 
-0.0935062 -0.044734 -2.78789 0.0025 0.962772 0.94829 2.46237 0.00519334 162 4 1 5.47347e-07 
-0.0909162 -0.0385876 -2.79863 0.0025 0.967737 0.955129 2.46746 0.00516669 163 4 1 1.01887e-07 
-0.0883394 -0.0328147 -2.36213 0.0025 0.972397 0.961556 2.4722 0.00514193 164 4 1 -2.10181e-07 
-0.0857742 -0.0281527 -1.99248 0.0025 0.976554 0.967355 2.47638 0.00512005 165 4 1 1.00028e-06 
-0.0832194 -0.0227501 -3.20797 0.0025 0.981229 0.973877 2.48114 0.00509565 166 4 1 1.36698e-06 
-0.0806785 -0.0153422 -3.34568 0.0025 0.986694 0.981391 2.48672 0.00506743 167 4 1 -1.07038e-06 
-0.0781519 -0.0103311 -1.23445 0.0025 0.990895 0.987221 2.4909 0.00504594 168 4 1 -9.22763e-07 
-0.0756326 -0.00785128 -1.49955 0.0025 0.993951 0.991616 2.49389 0.00503043 169 4 1 2.34826e-06 
-0.0731215 -0.00191388 -4.11372 0.0025 0.99879 0.998394 2.49881 0.00500606 170 4 1 1.8197e-06 
-0.0706265 0.00666486 -3.61766 0.0025 1.00488 1.00677 2.50499 0.00497572 171 4 1 -2.2928e-06 
-0.0681457 0.010913 -0.517264 0.0025 1.00853 1.01186 2.50856 0.0049577 172 4 1 -2.14302e-06 
-0.0656688 0.0109552 0.0602648 0.0025 1.00982 1.01384 2.50973 0.00495138 173 4 1 2.07888e-06 
-0.0631943 0.0144258 -3.35694 0.0025 1.01285 1.01814 2.5128 0.00493657 174 4 1 2.12009e-06 
-0.0607322 0.0217054 -3.10502 0.0025 1.01773 1.02485 2.51774 0.00491289 175 4 1 -2.04839e-06 
-0.0582814 0.0248494 -0.301473 0.0025 1.02049 1.02869 2.52043 0.00489963 176 4 1 -2.28351e-06 
-0.0558325 0.024546 0.408094 0.0025 1.02056 1.02886 2.52046 0.00489929 177 3 1 -6.39736e-07 
-0.0533821 0.0235207 0.55543 0.0025 1.01973 1.02773 2.51964 0.00490325 178 4 1 -1.62759e-07 
-0.0509293 0.0223059 0.604963 0.0025 1.01868 1.02625 2.51859 0.00490833 179 4 1 -8.99106e-08 
-0.0484738 0.020959 0.667995 0.0025 1.01749 1.02457 2.51741 0.00491407 180 4 1 -9.6192e-08 
-0.0460152 0.0194447 0.753487 0.0025 1.01615 1.02269 2.51609 0.00492053 181 4 1 -9.01645e-08 
-0.0435532 0.0177487 0.841128 0.0025 1.01467 1.0206 2.51463 0.00492769 182 4 1 -5.56907e-08 
-0.0410875 0.0159011 0.907919 0.0025 1.01309 1.01837 2.51305 0.00493542 183 4 1 -1.60965e-09 
-0.0386178 0.0139663 0.939277 0.0025 1.01144 1.01606 2.51141 0.00494343 184 4 1 5.71067e-08 
-0.0361441 0.0120239 0.930981 0.0025 1.00981 1.01377 2.50979 0.00495141 185 4 1 1.07947e-07 
-0.0336664 0.0101499 0.887069 0.0025 1.00825 1.01158 2.50824 0.00495907 186 4 1 1.44149e-07 
-0.031185 0.00840585 0.81609 0.0025 1.00681 1.00956 2.5068 0.00496617 187 4 1 1.64254e-07 
-0.0287002 0.0068337 0.727877 0.0025 1.00552 1.00775 2.50551 0.00497254 188 4 1 1.70187e-07 
-0.0262125 0.00545623 0.631489 0.0025 1.0044 1.00617 2.50439 0.00497811 189 4 1 1.65327e-07 
-0.0237221 0.00427984 0.534238 0.0025 1.00344 1.00483 2.50344 0.00498285 190 4 1 1.53213e-07 
-0.0212296 0.00329839 0.441444 0.0025 1.00265 1.00372 2.50264 0.0049868 191 4 1 1.36915e-07 
-0.0187353 0.00249703 0.356554 0.0025 1.002 1.00281 2.502 0.00499 192 4 1 1.18838e-07 
-0.0162396 0.00185548 0.281429 0.0025 1.00149 1.0021 2.50149 0.00499255 193 4 1 1.00744e-07 
-0.0137428 0.00135076 0.216658 0.0025 1.0011 1.00154 2.50109 0.00499452 194 4 1 8.38666e-08 
-0.0112451 0.000959056 0.161864 0.0025 1.0008 1.00112 2.5008 0.00499602 195 4 1 6.90277e-08 
-0.00874677 0.000657066 0.115962 0.0025 1.00058 1.00081 2.50058 0.00499711 196 4 1 5.67511e-08 
-0.00624799 0.000422685 0.0773772 0.0025 1.00043 1.0006 2.50043 0.00499786 197 4 1 4.73512e-08 
-0.00374891 0.000235249 0.0442103 0.0025 1.00033 1.00047 2.50033 0.00499834 198 4 1 4.10033e-08 
-0.00124965 7.5387e-05 0.0143641 0.0025 1.00029 1.0004 2.50029 0.00499856 199 4 1 3.77916e-08 
0.00124965 -7.5387e-05 -0.0143641 0.0025 1.00029 1.0004 2.50029 0.00499856 200 4 1 3.77916e-08 
0.00374891 -0.000235249 -0.0442103 0.0025 1.00033 1.00047 2.50033 0.00499834 201 4 1 4.10033e-08 
0.00624799 -0.000422685 -0.0773772 0.0025 1.00043 1.0006 2.50043 0.00499786 202 4 1 4.73512e-08 
0.00874677 -0.000657066 -0.115962 0.0025 1.00058 1.00081 2.50058 0.00499711 203 4 1 5.67511e-08 
0.0112451 -0.000959056 -0.161864 0.0025 1.0008 1.00112 2.5008 0.00499602 204 4 1 6.90277e-08 
0.0137428 -0.00135076 -0.216658 0.0025 1.0011 1.00154 2.50109 0.00499452 205 4 1 8.38666e-08 
0.0162396 -0.00185548 -0.281429 0.0025 1.00149 1.0021 2.50149 0.00499255 206 4 1 1.00744e-07 
0.0187353 -0.00249703 -0.356554 0.0025 1.002 1.00281 2.502 0.00499 207 4 1 1.18838e-07 
0.0212296 -0.00329839 -0.441444 0.0025 1.00265 1.00372 2.50264 0.0049868 208 4 1 1.36915e-07 
0.0237221 -0.00427984 -0.534238 0.0025 1.00344 1.00483 2.50344 0.00498285 209 4 1 1.53213e-07 
0.0262125 -0.00545623 -0.631489 0.0025 1.0044 1.00617 2.50439 0.00497811 210 4 1 1.65327e-07 
0.0287002 -0.0068337 -0.727877 0.0025 1.00552 1.00775 2.50551 0.00497254 211 4 1 1.70187e-07 
