# Time [s]: 0.352383
# Columns: pos [m], vel [m/s], acc [m/s^2], mass [kg], dens [kg/m^3], pres [Pa], ene [J/kg], sml [m], id, neighbor, alpha, gradh, ...additional?
1.26504 -0.673084 0.000211495 0.0025 0.511054 0.432731 2.15251 0.0097837 0 4 1 -0.000134225 
1.26982 -0.673085 0.000219327 0.0025 0.536911 0.426194 1.95005 0.00931252 1 4 1 0.000179253 
1.27436 -0.673086 0.000228342 0.0025 0.548241 0.430863 1.96851 0.00912007 2 3 1 -1.90585e-05 
1.27894 -0.673087 0.000239295 0.0025 0.545976 0.429199 1.96465 0.00915791 3 5 1 3.48571e-06 
1.28352 -0.673088 0.000251824 0.0025 0.546374 0.429353 1.96459 0.00915124 4 4 1 -1.38706e-07 
1.28809 -0.673089 0.000265372 0.0025 0.546385 0.429323 1.96435 0.00915106 5 4 1 1.43703e-07 
1.29267 -0.673091 0.000279611 0.0025 0.546407 0.429322 1.96429 0.00915068 6 4 1 -3.53938e-09 
1.29724 -0.673092 0.000294854 0.0025 0.54642 0.429319 1.96423 0.00915046 7 4 1 8.20437e-09 
1.30182 -0.673093 0.000311897 0.0025 0.546434 0.429318 1.96418 0.00915023 8 4 1 4.73007e-09 
1.30639 -0.673095 0.000331319 0.0025 0.546446 0.429317 1.96413 0.00915003 9 4 1 5.43742e-09 
1.31097 -0.673097 0.000352767 0.0025 0.546457 0.429316 1.96409 0.00914985 10 4 1 -2.28201e-09 
1.31554 -0.673098 0.000374986 0.0025 0.546468 0.429315 1.96404 0.00914967 11 4 1 4.68475e-09 
1.32012 -0.6731 0.000396821 0.0025 0.546477 0.429314 1.96401 0.00914951 12 4 1 2.80768e-09 
1.32469 -0.673102 0.000418529 0.0025 0.546486 0.429313 1.96397 0.00914937 13 4 1 3.52827e-09 
1.32927 -0.673104 0.000442226 0.0025 0.546493 0.429312 1.96394 0.00914925 14 4 1 2.07207e-09 
1.33384 -0.673107 0.000470708 0.0025 0.5465 0.42931 1.96391 0.00914914 15 4 1 -1.63834e-09 
1.33841 -0.673109 0.000505283 0.0025 0.546506 0.429309 1.96388 0.00914903 16 4 1 4.83563e-09 
1.34299 -0.673112 0.000544287 0.0025 0.546511 0.429308 1.96386 0.00914894 17 4 1 1.40917e-09 
1.34756 -0.673115 0.000583798 0.0025 0.546516 0.429306 1.96383 0.00914886 18 4 1 -1.26344e-09 
1.35214 -0.673118 0.00062041 0.0025 0.546521 0.429305 1.96381 0.00914878 19 4 1 2.63997e-09 
1.35671 -0.673121 0.000654139 0.0025 0.546525 0.429303 1.96379 0.00914872 20 4 1 1.11867e-09 
1.36129 -0.673124 0.000689188 0.0025 0.546528 0.429301 1.96377 0.00914866 21 4 1 1.13988e-09 
1.36586 -0.673128 0.000731747 0.0025 0.546531 0.429299 1.96375 0.00914862 22 4 1 9.90994e-10 
1.37044 -0.673132 0.00078629 0.0025 0.546533 0.429298 1.96373 0.00914858 23 4 1 -2.62136e-10 
1.37501 -0.673136 0.000852918 0.0025 0.546535 0.429295 1.96371 0.00914854 24 4 1 1.36438e-09 
1.37958 -0.673141 0.0009275 0.0025 0.546537 0.429293 1.9637 0.00914851 25 4 1 6.10153e-10 
1.38416 -0.673146 0.0010043 0.0025 0.546538 0.429291 1.96368 0.0091485 26 4 1 -4.87761e-10 
1.38873 -0.673151 0.00107921 0.0025 0.546539 0.429288 1.96367 0.00914848 27 4 1 1.10409e-09 
1.39331 -0.673157 0.00115176 0.0025 0.546539 0.429285 1.96365 0.00914847 28 3 1 7.53206e-10 
1.39788 -0.673163 0.00122492 0.0025 0.546539 0.429282 1.96364 0.00914847 29 4 1 -8.83785e-10 
1.40246 -0.673169 0.00130277 0.0025 0.546539 0.429278 1.96362 0.00914848 30 4 1 3.72128e-10 
1.40703 -0.673176 0.00138636 0.0025 0.546538 0.429275 1.96361 0.00914849 31 4 1 1.81399e-09 
1.4116 -0.673184 0.001469 0.0025 0.546537 0.429271 1.9636 0.00914851 32 4 1 -1.01134e-09 
1.41618 -0.673193 0.00153417 0.0025 0.546536 0.429267 1.96358 0.00914853 33 4 1 -9.41952e-10 
1.42075 -0.673202 0.00156107 0.0025 0.546534 0.429263 1.96357 0.00914856 34 4 1 2.09019e-09 
1.42533 -0.673213 0.00153941 0.0025 0.546532 0.429259 1.96356 0.00914859 35 4 1 -1.32086e-10 
1.4299 -0.673225 0.00148707 0.0025 0.54653 0.429255 1.96354 0.00914862 36 4 1 -7.48833e-10 
1.43448 -0.673239 0.00145601 0.0025 0.546529 0.42925 1.96353 0.00914865 37 4 1 1.48215e-09 
1.43905 -0.673255 0.00151586 0.0025 0.546526 0.429246 1.96352 0.00914869 38 4 1 -8.57197e-11 
1.44362 -0.673272 0.00172109 0.0025 0.546524 0.429242 1.96351 0.00914873 39 4 1 -1.2713e-09 
1.4482 -0.673291 0.00208449 0.0025 0.546521 0.429236 1.9635 0.00914878 40 4 1 -2.19969e-10 
1.45277 -0.673309 0.00257656 0.0025 0.546517 0.42923 1.96348 0.00914885 41 4 1 -8.20539e-10 
1.45735 -0.673329 0.00314793 0.0025 0.546512 0.429223 1.96347 0.00914894 42 4 1 -2.10592e-09 
1.46192 -0.673348 0.00375322 0.0025 0.546505 0.429214 1.96345 0.00914905 43 4 1 -1.59509e-09 
1.4665 -0.673368 0.00436106 0.0025 0.546497 0.429204 1.96343 0.00914918 44 4 1 -6.51413e-10 
1.47107 -0.673389 0.00495466 0.0025 0.546487 0.429192 1.96341 0.00914935 45 4 1 -1.9788e-09 
1.47565 -0.673412 0.00553465 0.0025 0.546476 0.429178 1.96339 0.00914953 46 4 1 -2.32918e-09 
1.48022 -0.673436 0.00612395 0.0025 0.546463 0.429163 1.96337 0.00914975 47 4 1 -1.08135e-09 
1.4848 -0.673463 0.00676244 0.0025 0.546449 0.429146 1.96334 0.00914998 48 4 1 -1.55709e-09 
1.48937 -0.673493 0.00748635 0.0025 0.546433 0.429127 1.96331 0.00915025 49 4 1 -2.68738e-09 
1.49395 -0.673526 0.00830718 0.0025 0.546415 0.429107 1.96328 0.00915055 50 4 1 -2.65051e-09 
1.49852 -0.673563 0.00921516 0.0025 0.546395 0.429083 1.96325 0.00915089 51 4 1 -1.98809e-09 
-0.496904 -0.673605 0.010211 0.0025 0.546372 0.429058 1.96321 0.00915127 52 4 1 -3.01301e-09 
-0.492328 -0.673651 0.0113338 0.0025 0.546347 0.429029 1.96317 0.00915169 53 4 1 -4.16426e-09 
-0.487752 -0.673704 0.0126492 0.0025 0.546319 0.428997 1.96313 0.00915216 54 4 1 -3.85873e-09 
-0.483176 -0.673763 0.0141986 0.0025 0.546288 0.428961 1.96308 0.00915269 55 4 1 -3.85916e-09 
-0.478599 -0.673829 0.0159586 0.0025 0.546252 0.428922 1.96302 0.00915328 56 4 1 -5.41362e-09 
-0.474022 -0.673903 0.0178574 0.0025 0.546212 0.428877 1.96296 0.00915395 57 4 1 -6.1524e-09 
-0.469445 -0.673986 0.0198467 0.0025 0.546168 0.428827 1.96289 0.0091547 58 4 1 -5.14697e-09 
-0.464868 -0.674079 0.0219645 0.0025 0.546118 0.428771 1.96282 0.00915553 59 4 1 -5.65642e-09 
-0.46029 -0.674183 0.0243072 0.0025 0.546063 0.42871 1.96273 0.00915645 60 4 1 -6.64501e-09 
-0.455711 -0.674297 0.0268736 0.0025 0.546003 0.428644 1.96264 0.00915746 61 4 1 -6.4725e-09 
-0.451132 -0.674421 0.0293827 0.0025 0.545938 0.428571 1.96255 0.00915856 62 4 1 -4.96756e-09 
-0.446553 -0.674554 0.0313455 0.0025 0.545867 0.428493 1.96244 0.00915974 63 4 1 -3.28348e-09 
-0.441973 -0.674695 0.0324961 0.0025 0.545794 0.428412 1.96233 0.00916097 64 4 1 -1.05034e-09 
-0.437392 -0.674843 0.0330416 0.0025 0.54572 0.42833 1.96222 0.00916221 65 4 1 1.8728e-09 
-0.43281 -0.67499 0.033086 0.0025 0.545647 0.428249 1.96212 0.00916344 66 4 1 4.71309e-09 
-0.428228 -0.67513 0.0320292 0.0025 0.545577 0.428172 1.96201 0.0091646 67 4 1 8.62976e-09 
-0.423646 -0.675253 0.0288005 0.0025 0.545515 0.428103 1.96192 0.00916565 68 4 1 1.46527e-08 
-0.419063 -0.675354 0.0229447 0.0025 0.545465 0.428048 1.96184 0.0091665 69 4 1 2.27244e-08 
-0.414479 -0.675427 0.0148953 0.0025 0.545433 0.428013 1.9618 0.00916703 70 4 1 2.60631e-08 
-0.409896 -0.675451 0.00178752 0.0025 0.545423 0.428001 1.96178 0.0091672 71 5 1 2.36868e-08 
-0.405312 -0.675481 0.00729014 0.0025 0.545434 0.428016 1.96179 0.00916702 72 4 1 1.14256e-07 
-0.400729 -0.675343 -0.0743061 0.0025 0.54554 0.428137 1.96194 0.00916523 73 4 1 2.60639e-07 
-0.396147 -0.674745 -0.191388 0.0025 0.545857 0.428487 1.96239 0.00915992 74 4 1 3.15498e-07 
-0.391569 -0.673674 -0.286888 0.0025 0.546423 0.429111 1.96321 0.00915043 75 4 1 4.09696e-07 
-0.386996 -0.672107 -0.43887 0.0025 0.547299 0.430085 1.96446 0.00913577 76 4 1 7.36282e-07 
-0.382433 -0.66951 -0.756999 0.0025 0.5487 0.431635 1.96647 0.00911245 77 4 1 1.0728e-06 
-0.377884 -0.66548 -1.10032 0.0025 0.5508 0.433949 1.96948 0.0090777 78 4 1 1.16089e-06 
-0.373355 -0.660152 -1.36642 0.0025 0.553555 0.436983 1.97341 0.00903252 79 4 1 1.0819e-06 
-0.368851 -0.653949 -1.53244 0.0025 0.556797 0.440564 1.97802 0.00897993 80 4 1 1.02686e-06 
-0.364375 -0.647148 -1.66904 0.0025 0.560396 0.444553 1.98313 0.00892227 81 4 1 1.09883e-06 
-0.359929 -0.639784 -1.82071 0.0025 0.564322 0.448921 1.98867 0.00886019 82 4 1 1.24486e-06 
-0.355515 -0.631833 -1.99301 0.0025 0.568598 0.453691 1.99468 0.00879356 83 4 1 1.38484e-06 
-0.351135 -0.62321 -2.16504 0.0025 0.573233 0.458876 2.00117 0.00872245 84 4 1 1.45787e-06 
-0.346792 -0.614045 -2.30867 0.0025 0.578193 0.464441 2.00808 0.00864764 85 4 1 1.45445e-06 
-0.342487 -0.604471 -2.41246 0.0025 0.583402 0.470304 2.0153 0.00857042 86 4 1 1.37338e-06 
-0.338222 -0.594702 -2.45871 0.0025 0.588758 0.476356 2.02268 0.00849245 87 4 1 1.25243e-06 
-0.333995 -0.584942 -2.46459 0.0025 0.594162 0.482484 2.03008 0.00841521 88 4 1 1.14965e-06 
-0.329806 -0.575297 -2.4516 0.0025 0.599547 0.488615 2.03742 0.00833963 89 4 1 1.06792e-06 
-0.325655 -0.56584 -2.42677 0.0025 0.604878 0.494707 2.04465 0.00826612 90 4 1 1.01552e-06 
-0.32154 -0.556536 -2.4087 0.0025 0.610145 0.500746 2.05175 0.00819478 91 4 1 9.46944e-07 
-0.31746 -0.547455 -2.36587 0.0025 0.61533 0.506713 2.0587 0.00812572 92 4 1 8.95497e-07 
-0.313414 -0.538592 -2.34014 0.0025 0.620428 0.512601 2.06551 0.00805895 93 4 1 8.82118e-07 
-0.309401 -0.529899 -2.32137 0.0025 0.62546 0.51843 2.07219 0.00799412 94 4 1 8.46043e-07 
-0.30542 -0.521377 -2.29409 0.0025 0.630425 0.524201 2.07875 0.00793116 95 4 1 8.14047e-07 
-0.30147 -0.513039 -2.27322 0.0025 0.635326 0.529915 2.0852 0.00786997 96 4 1 8.05221e-07 
-0.29755 -0.504812 -2.26151 0.0025 0.640178 0.53559 2.09156 0.00781033 97 4 1 8.01713e-07 
-0.293659 -0.496702 -2.25477 0.0025 0.644997 0.541244 2.09784 0.00775197 98 4 1 8.08583e-07 
-0.289798 -0.488666 -2.2599 0.0025 0.649801 0.546897 2.10407 0.00769466 99 4 1 8.39807e-07 
-0.285964 -0.480629 -2.28494 0.0025 0.654621 0.552586 2.1103 0.00763801 100 4 1 8.54375e-07 
-0.28216 -0.47261 -2.29962 0.0025 0.659471 0.558326 2.11654 0.00758184 101 4 1 8.90822e-07 
-0.278383 -0.464563 -2.34795 0.0025 0.664374 0.564148 2.12282 0.00752589 102 4 1 9.63519e-07 
-0.274634 -0.456382 -2.41667 0.0025 0.669373 0.570099 2.1292 0.00746968 103 4 1 9.50063e-07 
-0.270913 -0.448114 -2.43592 0.0025 0.674449 0.57616 2.13564 0.00741346 104 4 1 9.39971e-07 
-0.26722 -0.439835 -2.48008 0.0025 0.679581 0.582309 2.14213 0.00735747 105 4 1 9.8073e-07 
-0.263555 -0.431447 -2.53204 0.0025 0.684792 0.588568 2.14868 0.00730149 106 4 1 9.65691e-07 
-0.259918 -0.423015 -2.5555 0.0025 0.690062 0.594918 2.15528 0.00724572 107 4 1 9.38411e-07 
-0.256309 -0.414594 -2.57774 0.0025 0.695367 0.60133 2.16189 0.00719045 108 4 1 9.24638e-07 
-0.252728 -0.40618 -2.59382 0.0025 0.700695 0.607789 2.1685 0.00713577 109 4 1 9.06738e-07 
-0.249173 -0.397803 -2.60649 0.0025 0.706036 0.614284 2.1751 0.00708179 110 4 1 8.73208e-07 
-0.245646 -0.389474 -2.60086 0.0025 0.711372 0.620794 2.18166 0.00702867 111 4 1 8.68244e-07 
-0.242145 -0.38124 -2.61948 0.0025 0.716707 0.627322 2.18819 0.00697635 112 4 1 8.74971e-07 
-0.238669 -0.372988 -2.63237 0.0025 0.722052 0.63388 2.1947 0.00692471 113 4 1 8.29224e-07 
-0.23522 -0.364824 -2.61631 0.0025 0.727382 0.64044 2.20117 0.00687397 114 4 1 8.14545e-07 
-0.231795 -0.35676 -2.62651 0.0025 0.732694 0.646999 2.20758 0.00682413 115 4 1 8.31104e-07 
-0.228396 -0.348702 -2.64249 0.0025 0.738011 0.653581 2.21398 0.00677496 116 4 1 7.98767e-07 
-0.22502 -0.340714 -2.63082 0.0025 0.743317 0.660168 2.22033 0.0067266 117 4 1 7.65766e-07 
-0.221669 -0.332812 -2.62409 0.0025 0.748597 0.666742 2.22662 0.00667917 118 4 1 7.71797e-07 
-0.218341 -0.324987 -2.63334 0.0025 0.753865 0.673321 2.23288 0.00663249 119 4 1 7.91808e-07 
-0.215036 -0.317181 -2.6581 0.0025 0.759145 0.679932 2.23912 0.00658636 120 4 1 7.75723e-07 
-0.211755 -0.309386 -2.6585 0.0025 0.764429 0.686565 2.24534 0.00654083 121 4 1 7.05255e-07 
-0.208495 -0.301737 -2.61932 0.0025 0.769675 0.69317 2.25149 0.00649625 122 4 1 7.27379e-07 
-0.205258 -0.294143 -2.65632 0.0025 0.774906 0.699777 2.2576 0.0064524 123 4 1 7.7331e-07 
-0.202043 -0.286499 -2.68145 0.0025 0.780166 0.706434 2.26372 0.00640889 124 4 1 6.97539e-07 
-0.198849 -0.278953 -2.6424 0.0025 0.785404 0.71308 2.26978 0.00636615 125 4 1 6.51151e-07 
-0.195677 -0.271542 -2.62767 0.0025 0.790592 0.719686 2.27577 0.00632438 126 4 1 7.13051e-07 
-0.192525 -0.264163 -2.67226 0.0025 0.795789 0.726319 2.28174 0.00628307 127 4 1 7.38018e-07 
-0.189394 -0.256721 -2.69336 0.0025 0.80102 0.73301 2.28773 0.00624204 128 4 1 6.64432e-07 
-0.186283 -0.24938 -2.65972 0.0025 0.806231 0.739693 2.29367 0.0062017 129 4 1 6.2662e-07 
-0.183192 -0.242129 -2.64959 0.0025 0.811399 0.746341 2.29954 0.00616219 130 4 1 6.56842e-07 
-0.180121 -0.234957 -2.66669 0.0025 0.816561 0.752998 2.30538 0.00612324 131 4 1 6.91872e-07 
-0.177069 -0.227743 -2.7042 0.0025 0.821748 0.759702 2.31122 0.00608459 132 4 1 6.52848e-07 
-0.174036 -0.220564 -2.68366 0.0025 0.826934 0.76642 2.31705 0.00604643 133 4 1 5.81694e-07 
-0.171022 -0.213516 -2.64799 0.0025 0.832069 0.773092 2.32279 0.00600912 134 4 1 5.91117e-07 
-0.168027 -0.206561 -2.65358 0.0025 0.837172 0.77974 2.32848 0.00597249 135 4 1 6.57372e-07 
-0.16505 -0.199586 -2.70573 0.0025 0.842305 0.786442 2.33418 0.00593609 136 4 1 6.72638e-07 
-0.162091 -0.192546 -2.73152 0.0025 0.84748 0.793212 2.33991 0.00589984 137 4 1 5.71315e-07 
-0.15915 -0.185603 -2.66958 0.0025 0.852619 0.799951 2.34557 0.00586428 138 4 1 5.11533e-07 
-0.156226 -0.178852 -2.63693 0.0025 0.857682 0.806612 2.35113 0.00582967 139 4 1 5.93947e-07 
-0.15332 -0.172117 -2.69052 0.0025 0.862749 0.813295 2.35667 0.00579543 140 4 1 6.80147e-07 
-0.150431 -0.165253 -2.76699 0.0025 0.867893 0.820089 2.36229 0.00576108 141 4 1 5.89771e-07 
-0.147559 -0.158405 -2.71235 0.0025 0.873038 0.826897 2.36788 0.00572712 142 4 1 4.28926e-07 
-0.144704 -0.151833 -2.60323 0.0025 0.87806 0.833566 2.37332 0.00569437 143 4 1 4.88784e-07 
-0.141864 -0.145382 -2.64257 0.0025 0.883025 0.84018 2.37867 0.00566235 144 4 1 6.72541e-07 
-0.139041 -0.138783 -2.77074 0.0025 0.888095 0.846941 2.38413 0.00563003 145 4 1 6.7058e-07 
-0.136234 -0.131991 -2.79933 0.0025 0.89326 0.853837 2.38967 0.00559747 146 4 1 4.4391e-07 
-0.133444 -0.125431 -2.64631 0.0025 0.89833 0.860624 2.39508 0.00556589 147 4 1 3.55613e-07 
-0.130668 -0.119168 -2.58415 0.0025 0.903243 0.867229 2.40031 0.00553561 148 4 1 5.5438e-07 
-0.127908 -0.112901 -2.70678 0.0025 0.908187 0.873889 2.40555 0.00550547 149 4 1 7.1488e-07 
-0.125163 -0.106321 -2.84595 0.0025 0.913297 0.880774 2.41096 0.00547467 150 4 1 5.48278e-07 
-0.122433 -0.0997519 -2.74816 0.0025 0.918422 0.887691 2.41637 0.00544412 151 4 1 2.92898e-07 
-0.119719 -0.093567 -2.57026 0.0025 0.923347 0.894363 2.42154 0.00541508 152 4 1 3.35217e-07 
-0.117018 -0.0876294 -2.56189 0.0025 0.928134 0.900873 2.42654 0.00538715 153 4 1 6.22183e-07 
-0.114331 -0.0814904 -2.77154 0.0025 0.933046 0.907559 2.43167 0.00535879 154 4 1 6.89267e-07 
-0.111659 -0.0750551 -2.83686 0.0025 0.938136 0.914488 2.43698 0.00532972 155 4 1 4.47766e-07 
-0.109002 -0.068734 -2.7158 0.0025 0.943179 0.92137 2.44221 0.00530122 156 4 1 2.63306e-07 
-0.106358 -0.0627728 -2.56182 0.0025 0.948023 0.928004 2.44722 0.00527414 157 4 1 3.51524e-07 
-0.103728 -0.0570205 -2.58974 0.0025 0.952766 0.934519 2.4521 0.00524788 158 4 1 5.48957e-07 
-0.10111 -0.0510649 -2.71553 0.0025 0.957605 0.941174 2.45707 0.00522136 159 4 1 6.34485e-07 
-0.0985061 -0.0449395 -2.84628 0.0025 0.962601 0.948052 2.4622 0.00519426 160 4 1 4.8493e-07 
-0.0959158 -0.0387076 -2.76726 0.0025 0.967597 0.95493 2.46731 0.00516744 161 4 1 4.5749e-09 
-0.0933387 -0.0331118 -2.28081 0.0025 0.972207 0.961298 2.472 0.00514294 162 4 1 -1.03954e-08 
-0.0907729 -0.0282959 -2.22168 0.0025 0.976477 0.967258 2.47631 0.00512045 163 4 1 1.18284e-06 
-0.0882182 -0.0224277 -3.36136 0.0025 0.981403 0.974108 2.48132 0.00509475 164 4 1 1.00892e-06 
-0.0856781 -0.0151169 -3.07181 0.0025 0.986801 0.981526 2.48682 0.00506688 165 4 1 -1.31616e-06 
-0.0831513 -0.0107338 -1.0223 0.0025 0.990721 0.986996 2.49071 0.00504683 166 4 1 -3.45312e-07 
-0.0806312 -0.00791916 -2.05263 0.0025 0.994018 0.991731 2.49396 0.00503009 167 4 1 2.79497e-06 
-0.0781212 -0.000862573 -4.48115 0.0025 0.999443 0.999283 2.49949 0.00500279 168 4 1 9.65137e-07 
-0.0756284 0.00742263 -2.97519 0.0025 1.00536 1.00741 2.50547 0.00497334 169 4 1 -2.87351e-06 
-0.0731478 0.0103457 0.0461807 0.0025 1.00829 1.01154 2.50828 0.0049589 170 4 1 -1.23078e-06 
-0.0706695 0.0105453 -0.735375 0.0025 1.00972 1.01373 2.50963 0.00495187 171 4 1 2.78494e-06 
-0.0681959 0.0155709 -3.85995 0.0025 1.01355 1.0191 2.51353 0.00493314 172 4 1 1.26028e-06 
-0.0657363 0.0227137 -2.58235 0.0025 1.01845 1.02584 2.51845 0.00490941 173 4 1 -2.52224e-06 
-0.0632865 0.0249367 -0.0489015 0.0025 1.02067 1.02896 2.5206 0.00489875 174 3 1 -1.96454e-06 
-0.0608376 0.0244403 0.441077 0.0025 1.0205 1.02879 2.5204 0.00489957 175 4 1 -4.63696e-07 
-0.0583869 0.023424 0.530933 0.0025 1.01966 1.02763 2.51957 0.00490358 176 4 1 -1.38764e-07 
-0.055934 0.0222527 0.583095 0.0025 1.01863 1.02618 2.51855 0.00490854 177 4 1 -1.04086e-07 
-0.0534784 0.0209281 0.660625 0.0025 1.01745 1.02452 2.51738 0.00491423 178 4 1 -1.17609e-07 
-0.0510197 0.0194033 0.762956 0.0025 1.01611 1.02262 2.51605 0.00492075 179 4 1 -1.04144e-07 
-0.0485576 0.0176722 0.860865 0.0025 1.0146 1.0205 2.51455 0.00492806 180 4 1 -5.85525e-08 
-0.0460917 0.0157801 0.930047 0.0025 1.01297 1.01822 2.51294 0.00493596 181 4 1 4.55208e-09 
-0.0436217 0.0138051 0.957676 0.0025 1.0113 1.01586 2.51127 0.00494412 182 4 1 6.77512e-08 
-0.0411476 0.0118344 0.942705 0.0025 1.00965 1.01354 2.50963 0.00495221 183 4 1 1.19056e-07 
-0.0386695 0.00994662 0.891755 0.0025 1.00808 1.01134 2.50807 0.00495992 184 4 1 1.53348e-07 
-0.0361876 0.00820176 0.814848 0.0025 1.00664 1.00932 2.50663 0.00496701 185 4 1 1.70712e-07 
-0.0337024 0.00663889 0.722341 0.0025 1.00536 1.00752 2.50535 0.00497334 186 4 1 1.74012e-07 
-0.0312143 0.00527761 0.623268 0.0025 1.00425 1.00596 2.50424 0.00497884 187 4 1 1.66999e-07 
-0.0287236 0.00412161 0.524707 0.0025 1.00331 1.00464 2.5033 0.00498351 188 4 1 1.53257e-07 
-0.0262308 0.00316268 0.431713 0.0025 1.00253 1.00356 2.50253 0.00498736 189 4 1 1.35749e-07 
-0.0237362 0.00238461 0.34753 0.0025 1.00191 1.00268 2.5019 0.00499049 190 4 1 1.16732e-07 
-0.0212403 0.00176649 0.273893 0.0025 1.00141 1.00198 2.50141 0.00499296 191 4 1 9.78189e-08 
-0.0187433 0.0012853 0.211364 0.0025 1.00102 1.00144 2.50102 0.00499488 192 4 1 8.00931e-08 
-0.0162454 0.000917931 0.159635 0.0025 1.00073 1.00103 2.50073 0.00499634 193 4 1 6.42303e-08 
-0.0137469 0.000642485 0.117796 0.0025 1.00052 1.00072 2.50051 0.00499742 194 4 1 5.06016e-08 
-0.011248 0.000439114 0.0845618 0.0025 1.00036 1.0005 2.50036 0.00499821 195 4 1 3.93626e-08 
-0.00874873 0.000290362 0.0584347 0.0025 1.00025 1.00035 2.50025 0.00499876 196 4 1 3.05267e-08 
-0.00624923 0.000181157 0.0378285 0.0025 1.00017 1.00024 2.50017 0.00499913 197 4 1 2.40269e-08 
-0.00374959 9.85405e-05 0.021141 0.0025 1.00013 1.00018 2.50013 0.00499936 198 4 1 1.97665e-08 
-0.00124987 3.11897e-05 0.00678863 0.0025 1.00011 1.00015 2.50011 0.00499947 199 4 1 1.76575e-08 
0.00124987 -3.11897e-05 -0.00678863 0.0025 1.00011 1.00015 2.50011 0.00499947 200 4 1 1.76575e-08 
0.00374959 -9.85405e-05 -0.021141 0.0025 1.00013 1.00018 2.50013 0.00499936 201 4 1 1.97665e-08 
0.00624923 -0.000181157 -0.0378285 0.0025 1.00017 1.00024 2.50017 0.00499913 202 4 1 2.40269e-08 
0.00874873 -0.000290362 -0.0584347 0.0025 1.00025 1.00035 2.50025 0.00499876 203 4 1 3.05267e-08 
0.011248 -0.000439114 -0.0845618 0.0025 1.00036 1.0005 2.50036 0.00499821 204 4 1 3.93626e-08 
0.0137469 -0.000642485 -0.117796 0.0025 1.00052 1.00072 2.50051 0.00499742 205 4 1 5.06016e-08 
0.0162454 -0.000917931 -0.159635 0.0025 1.00073 1.00103 2.50073 0.00499634 206 4 1 6.42303e-08 
0.0187433 -0.0012853 -0.211364 0.0025 1.00102 1.00144 2.50102 0.00499488 207 4 1 8.00931e-08 
0.0212403 -0.00176649 -0.273893 0.0025 1.00141 1.00198 2.50141 0.00499296 208 4 1 9.78189e-08 
0.0237362 -0.00238461 -0.34753 0.0025 1.00191 1.00268 2.5019 0.00499049 209 4 1 1.16732e-07 
0.0262308 -0.00316268 -0.431713 0.0025 1.00253 1.00356 2.50253 0.00498736 210 4 1 1.35749e-07 
