# Time [s]: 0.359797
# Columns: pos [m], vel [m/s], acc [m/s^2], mass [kg], dens [kg/m^3], pres [Pa], ene [J/kg], sml [m], id, neighbor, alpha, gradh, ...additional?
1.26005 -0.673083 0.000184606 0.0025 0.511055 0.432732 2.15251 0.00978369 0 4 1 -0.000134225 
1.26483 -0.673084 0.000192463 0.0025 0.536912 0.426194 1.95005 0.00931251 1 4 1 0.000179253 
1.26937 -0.673085 0.000201149 0.0025 0.548242 0.430864 1.96851 0.00912006 2 3 1 -1.90585e-05 
1.27395 -0.673086 0.000210883 0.0025 0.545977 0.4292 1.96465 0.00915789 3 5 1 3.48569e-06 
1.27853 -0.673086 0.000221273 0.0025 0.546375 0.429354 1.96459 0.00915122 4 4 1 -1.38701e-07 
1.2831 -0.673088 0.000232413 0.0025 0.546386 0.429325 1.96436 0.00915104 5 4 1 1.43709e-07 
1.28768 -0.673089 0.000244796 0.0025 0.546409 0.429323 1.9643 0.00915066 6 4 1 -3.53411e-09 
1.29225 -0.67309 0.000258885 0.0025 0.546422 0.42932 1.96423 0.00915044 7 4 1 8.20864e-09 
1.29683 -0.673091 0.0002746 0.0025 0.546436 0.429319 1.96418 0.00915021 8 4 1 4.73514e-09 
1.3014 -0.673093 0.000291226 0.0025 0.546448 0.429318 1.96413 0.00915001 9 4 1 5.44581e-09 
1.30598 -0.673094 0.000307988 0.0025 0.546459 0.429317 1.96409 0.00914982 10 4 1 -2.26994e-09 
1.31055 -0.673096 0.000324962 0.0025 0.546469 0.429317 1.96405 0.00914964 11 4 1 4.69727e-09 
1.31513 -0.673097 0.000343488 0.0025 0.546479 0.429316 1.96401 0.00914948 12 4 1 2.81541e-09 
1.3197 -0.673099 0.000365517 0.0025 0.546488 0.429315 1.96397 0.00914934 13 4 1 3.52834e-09 
1.32428 -0.673101 0.000392119 0.0025 0.546495 0.429314 1.96394 0.00914922 14 4 1 2.0677e-09 
1.32885 -0.673103 0.000422275 0.0025 0.546502 0.429313 1.96391 0.0091491 15 4 1 -1.63842e-09 
1.33342 -0.673106 0.000453098 0.0025 0.546508 0.429312 1.96388 0.00914899 16 4 1 4.84858e-09 
1.338 -0.673108 0.000481662 0.0025 0.546514 0.42931 1.96386 0.0091489 17 4 1 1.43693e-09 
1.34257 -0.673111 0.000507281 0.0025 0.546519 0.429309 1.96384 0.00914882 18 4 1 -1.2287e-09 
1.34715 -0.673113 0.000532522 0.0025 0.546523 0.429308 1.96381 0.00914874 19 4 1 2.66849e-09 
1.35172 -0.673116 0.000562049 0.0025 0.546527 0.429306 1.96379 0.00914867 20 4 1 1.1313e-09 
1.3563 -0.67312 0.000599961 0.0025 0.546531 0.429305 1.96377 0.00914861 21 4 1 1.13756e-09 
1.36087 -0.673123 0.000647393 0.0025 0.546534 0.429303 1.96375 0.00914856 22 4 1 9.85294e-10 
1.36545 -0.673127 0.000701953 0.0025 0.546537 0.429301 1.96374 0.00914852 23 4 1 -2.56001e-10 
1.37002 -0.67313 0.000759241 0.0025 0.546539 0.429299 1.96372 0.00914848 24 4 1 1.39223e-09 
1.37459 -0.673135 0.000815372 0.0025 0.546541 0.429297 1.9637 0.00914845 25 4 1 6.59149e-10 
1.37917 -0.673139 0.000868924 0.0025 0.546542 0.429295 1.96369 0.00914842 26 4 1 -4.27065e-10 
1.38374 -0.673144 0.000921245 0.0025 0.546543 0.429293 1.96367 0.0091484 27 4 1 1.16495e-09 
1.38832 -0.673149 0.000974775 0.0025 0.546544 0.42929 1.96366 0.00914839 28 4 1 8.09311e-10 
1.39289 -0.673154 0.00102973 0.0025 0.546545 0.429288 1.96364 0.00914838 29 4 1 -8.23458e-10 
1.39746 -0.67316 0.00108038 0.0025 0.546545 0.429285 1.96363 0.00914838 30 3 1 4.61446e-10 
1.40204 -0.673167 0.00111354 0.0025 0.546545 0.429282 1.96362 0.00914838 31 4 1 1.96398e-09 
1.40661 -0.673175 0.00111269 0.0025 0.546544 0.429279 1.96361 0.00914839 32 4 1 -7.84636e-10 
1.41119 -0.673183 0.00106887 0.0025 0.546544 0.429276 1.96359 0.0091484 33 4 1 -6.66137e-10 
1.41576 -0.673193 0.000994013 0.0025 0.546543 0.429273 1.96358 0.0091484 34 4 1 2.33199e-09 
1.42034 -0.673204 0.000926828 0.0025 0.546543 0.42927 1.96357 0.00914841 35 4 1 -3.63672e-11 
1.42491 -0.673216 0.00092311 0.0025 0.546542 0.429267 1.96356 0.00914842 36 4 1 -8.77402e-10 
1.42948 -0.67323 0.00103259 0.0025 0.546542 0.429265 1.96355 0.00914844 37 4 1 1.14439e-09 
1.43406 -0.673245 0.00127632 0.0025 0.54654 0.429261 1.96354 0.00914845 38 4 1 -5.17592e-10 
1.43863 -0.67326 0.00163978 0.0025 0.546539 0.429258 1.96353 0.00914849 39 4 1 -1.64011e-09 
1.44321 -0.673275 0.00208444 0.0025 0.546536 0.429253 1.96352 0.00914853 40 4 1 -4.05969e-10 
1.44778 -0.67329 0.00256655 0.0025 0.546532 0.429247 1.9635 0.00914859 41 4 1 -7.82531e-10 
1.45236 -0.673306 0.00305036 0.0025 0.546527 0.42924 1.96349 0.00914868 42 4 1 -1.8672e-09 
1.45693 -0.673321 0.00351354 0.0025 0.546521 0.429232 1.96347 0.00914878 43 4 1 -1.2096e-09 
1.4615 -0.673337 0.00395004 0.0025 0.546513 0.429222 1.96346 0.00914891 44 4 1 -1.85941e-10 
1.46608 -0.673355 0.00437209 0.0025 0.546505 0.429211 1.96344 0.00914905 45 4 1 -1.50593e-09 
1.47065 -0.673373 0.00480607 0.0025 0.546495 0.429199 1.96342 0.00914921 46 4 1 -1.90453e-09 
1.47523 -0.673394 0.00527905 0.0025 0.546484 0.429186 1.9634 0.0091494 47 4 1 -7.07056e-10 
1.4798 -0.673417 0.00580392 0.0025 0.546472 0.429172 1.96337 0.0091496 48 4 1 -1.1722e-09 
1.48438 -0.673442 0.00637856 0.0025 0.546458 0.429156 1.96335 0.00914983 49 4 1 -2.21678e-09 
1.48895 -0.67347 0.00700355 0.0025 0.546443 0.429138 1.96332 0.00915008 50 4 1 -2.0809e-09 
1.49353 -0.673501 0.00770217 0.0025 0.546427 0.429118 1.96329 0.00915036 51 4 1 -1.38854e-09 
1.4981 -0.673536 0.00851789 0.0025 0.546408 0.429097 1.96326 0.00915067 52 4 1 -2.45801e-09 
-0.497322 -0.673575 0.00948557 0.0025 0.546387 0.429073 1.96323 0.00915102 53 4 1 -3.62665e-09 
-0.492746 -0.673618 0.010603 0.0025 0.546364 0.429047 1.96319 0.00915141 54 4 1 -3.19691e-09 
-0.48817 -0.673667 0.0118369 0.0025 0.546338 0.429017 1.96315 0.00915184 55 4 1 -2.94739e-09 
-0.483594 -0.673721 0.01317 0.0025 0.546308 0.428984 1.9631 0.00915234 56 4 1 -4.31446e-09 
-0.479018 -0.673783 0.0146479 0.0025 0.546276 0.428947 1.96305 0.00915289 57 4 1 -5.14919e-09 
-0.474441 -0.673852 0.0163673 0.0025 0.546239 0.428905 1.96299 0.0091535 58 4 1 -4.54124e-09 
-0.469864 -0.67393 0.0183824 0.0025 0.546198 0.428859 1.96293 0.00915419 59 4 1 -5.45713e-09 
-0.465287 -0.674016 0.0206009 0.0025 0.546152 0.428808 1.96286 0.00915497 60 4 1 -6.50276e-09 
-0.46071 -0.674113 0.0228192 0.0025 0.5461 0.428751 1.96278 0.00915583 61 4 1 -6.16742e-09 
-0.456131 -0.674219 0.0249373 0.0025 0.546044 0.428688 1.9627 0.00915677 62 4 1 -5.11423e-09 
-0.451553 -0.674338 0.0270994 0.0025 0.545983 0.42862 1.96261 0.0091578 63 4 1 -5.17906e-09 
-0.446974 -0.674466 0.0294514 0.0025 0.545917 0.428547 1.96251 0.0091589 64 4 1 -5.27909e-09 
-0.442394 -0.674601 0.0317315 0.0025 0.545847 0.428469 1.96241 0.00916008 65 4 1 -3.65917e-09 
-0.437814 -0.674741 0.0332818 0.0025 0.545773 0.428388 1.9623 0.00916132 66 4 1 -7.59795e-10 
-0.433233 -0.674883 0.0335117 0.0025 0.545698 0.428305 1.96219 0.00916257 67 4 1 3.16972e-09 
-0.428651 -0.675023 0.0322344 0.0025 0.545626 0.428225 1.96208 0.00916378 68 4 1 7.86835e-09 
-0.424069 -0.675157 0.0293976 0.0025 0.545561 0.428153 1.96198 0.00916489 69 4 1 1.29027e-08 
-0.419486 -0.675276 0.0251553 0.0025 0.545505 0.428091 1.9619 0.00916582 70 4 1 1.66767e-08 
-0.414903 -0.67537 0.0200339 0.0025 0.545463 0.428045 1.96184 0.00916652 71 4 1 2.28355e-08 
-0.41032 -0.675424 0.0104005 0.0025 0.545441 0.42802 1.9618 0.0091669 72 4 1 2.01408e-08 
-0.405736 -0.675435 0.00599453 0.0025 0.545435 0.428013 1.96179 0.009167 73 5 1 3.71972e-08 
-0.401153 -0.675439 -0.00810125 0.0025 0.545461 0.428047 1.96183 0.00916655 74 4 1 1.56525e-07 
-0.396569 -0.675188 -0.105699 0.0025 0.545617 0.428223 1.96205 0.00916393 75 4 1 2.98865e-07 
-0.391989 -0.674435 -0.231637 0.0025 0.546013 0.428658 1.96262 0.00915729 76 4 1 3.32253e-07 
-0.387412 -0.67322 -0.320808 0.0025 0.546668 0.429382 1.96355 0.00914632 77 4 1 4.70045e-07 
-0.382842 -0.671424 -0.517807 0.0025 0.547672 0.430497 1.96499 0.00912955 78 4 1 8.11821e-07 
-0.378283 -0.668481 -0.836833 0.0025 0.549242 0.432231 1.96724 0.00910346 79 4 1 1.09056e-06 
-0.373739 -0.664124 -1.16757 0.0025 0.5515 0.434718 1.97047 0.00906618 80 4 1 1.14005e-06 
-0.369216 -0.658577 -1.40596 0.0025 0.554372 0.437882 1.97457 0.00901922 81 4 1 1.04124e-06 
-0.364719 -0.652258 -1.55231 0.0025 0.557683 0.441543 1.97928 0.00896567 82 4 1 1.00665e-06 
-0.360251 -0.645381 -1.68658 0.0025 0.561323 0.445582 1.98444 0.00890752 83 4 1 1.08087e-06 
-0.355812 -0.638002 -1.82583 0.0025 0.565273 0.449979 1.99001 0.00884529 84 4 1 1.22146e-06 
-0.351405 -0.630033 -1.9952 0.0025 0.569553 0.454757 1.99602 0.00877881 85 4 1 1.34929e-06 
-0.347033 -0.621464 -2.15246 0.0025 0.574172 0.459927 2.00248 0.00870819 86 4 1 1.40289e-06 
-0.342697 -0.612395 -2.28512 0.0025 0.579089 0.465447 2.00932 0.00863425 87 4 1 1.39115e-06 
-0.338398 -0.602965 -2.3765 0.0025 0.58423 0.471237 2.01644 0.00855828 88 4 1 1.30032e-06 
-0.334138 -0.593372 -2.41088 0.0025 0.589494 0.477188 2.02368 0.00848185 89 4 1 1.19475e-06 
-0.329916 -0.583802 -2.42009 0.0025 0.594795 0.483203 2.03094 0.00840626 90 4 1 1.09083e-06 
-0.325732 -0.574354 -2.39563 0.0025 0.60007 0.489211 2.03813 0.00833236 91 4 1 1.02218e-06 
-0.321584 -0.565095 -2.38203 0.0025 0.605291 0.495179 2.0452 0.00826049 92 4 1 9.8023e-07 
-0.317471 -0.555991 -2.36012 0.0025 0.610454 0.501101 2.05216 0.00819063 93 4 1 9.11212e-07 
-0.313393 -0.547099 -2.32304 0.0025 0.615539 0.506954 2.05898 0.00812297 94 4 1 8.61102e-07 
-0.309348 -0.538413 -2.2938 0.0025 0.62054 0.51273 2.06565 0.0080575 95 4 1 8.48096e-07 
-0.305336 -0.529886 -2.27929 0.0025 0.625475 0.518448 2.07221 0.00799392 96 4 1 8.13523e-07 
-0.301354 -0.521521 -2.24828 0.0025 0.630346 0.524109 2.07865 0.00793215 97 4 1 7.83041e-07 
-0.297403 -0.513314 -2.23103 0.0025 0.635154 0.529715 2.08498 0.0078721 98 4 1 7.84214e-07 
-0.293482 -0.50524 -2.22374 0.0025 0.63992 0.535288 2.09122 0.00781347 99 4 1 7.72961e-07 
-0.28959 -0.497265 -2.21208 0.0025 0.644654 0.54084 2.09739 0.0077561 100 4 1 7.80999e-07 
-0.285726 -0.489381 -2.22138 0.0025 0.649373 0.546392 2.10352 0.00769974 101 4 1 8.10304e-07 
-0.28189 -0.481499 -2.24143 0.0025 0.654105 0.551976 2.10964 0.00764403 102 4 1 8.18209e-07 
-0.278082 -0.473616 -2.25564 0.0025 0.658863 0.557605 2.11576 0.00758884 103 4 1 8.41119e-07 
-0.274301 -0.465742 -2.28898 0.0025 0.66366 0.563299 2.12191 0.00753398 104 4 1 9.15007e-07 
-0.270548 -0.457734 -2.35984 0.0025 0.668543 0.56911 2.12814 0.00747895 105 4 1 9.23918e-07 
-0.266822 -0.449633 -2.38687 0.0025 0.673509 0.575036 2.13445 0.0074238 106 4 1 8.98983e-07 
-0.263124 -0.441519 -2.41897 0.0025 0.678529 0.581046 2.1408 0.00736888 107 4 1 9.32156e-07 
-0.259453 -0.433324 -2.47056 0.0025 0.683618 0.587156 2.14721 0.00731402 108 4 1 9.35451e-07 
-0.25581 -0.425072 -2.50014 0.0025 0.688772 0.593361 2.15367 0.0072593 109 4 1 9.12019e-07 
-0.252193 -0.416818 -2.52402 0.0025 0.693965 0.599633 2.16015 0.00720497 110 4 1 8.82973e-07 
-0.248604 -0.408573 -2.53029 0.0025 0.699178 0.605949 2.16662 0.00715125 111 4 1 8.8016e-07 
-0.245042 -0.400354 -2.55832 0.0025 0.704409 0.612304 2.17309 0.00709815 112 4 1 8.52893e-07 
-0.241506 -0.392174 -2.54824 0.0025 0.709644 0.618682 2.17954 0.00704579 113 4 1 8.18306e-07 
-0.237996 -0.384084 -2.55157 0.0025 0.714863 0.625063 2.18593 0.00699435 114 4 1 8.42365e-07 
-0.234512 -0.376006 -2.57818 0.0025 0.720092 0.631473 2.19232 0.00694356 115 4 1 8.19101e-07 
-0.231053 -0.367961 -2.56925 0.0025 0.725321 0.637901 2.19867 0.0068935 116 4 1 7.80591e-07 
-0.227618 -0.360035 -2.56553 0.0025 0.73053 0.644324 2.20497 0.00684435 117 4 1 7.91396e-07 
-0.224208 -0.352144 -2.58143 0.0025 0.735734 0.650759 2.21124 0.00679593 118 4 1 7.87872e-07 
-0.220822 -0.344291 -2.58683 0.0025 0.74094 0.657213 2.21749 0.00674819 119 4 1 7.5255e-07 
-0.21746 -0.336511 -2.57626 0.0025 0.746128 0.663665 2.22368 0.00670126 120 4 1 7.28965e-07 
-0.214121 -0.328804 -2.56986 0.0025 0.751292 0.670104 2.22983 0.0066552 121 4 1 7.40031e-07 
-0.210805 -0.321176 -2.5837 0.0025 0.756449 0.676554 2.23594 0.00660983 122 4 1 7.67055e-07 
-0.207511 -0.313521 -2.61439 0.0025 0.761624 0.683042 2.24204 0.00656492 123 4 1 7.1837e-07 
-0.20424 -0.305924 -2.58568 0.0025 0.766789 0.689534 2.24811 0.00652069 124 4 1 6.69096e-07 
-0.20099 -0.298481 -2.57298 0.0025 0.771914 0.695996 2.25411 0.00647741 125 4 1 7.18365e-07 
-0.197762 -0.291034 -2.61206 0.0025 0.777044 0.702481 2.26009 0.00643464 126 4 1 7.28393e-07 
-0.194555 -0.283573 -2.62034 0.0025 0.782195 0.709006 2.26607 0.00639227 127 4 1 6.54766e-07 
-0.19137 -0.276205 -2.58548 0.0025 0.787315 0.71551 2.27199 0.0063507 128 4 1 6.28935e-07 
-0.188205 -0.268994 -2.57782 0.0025 0.792393 0.721983 2.27784 0.00631 129 4 1 6.91539e-07 
-0.18506 -0.261742 -2.62532 0.0025 0.797488 0.72849 2.28369 0.00626969 130 4 1 6.96337e-07 
-0.181935 -0.254489 -2.62995 0.0025 0.802608 0.735044 2.28954 0.00622969 131 4 1 6.36201e-07 
-0.17883 -0.247298 -2.61315 0.0025 0.807709 0.741591 2.29535 0.00619035 132 4 1 5.99574e-07 
-0.175744 -0.240227 -2.59019 0.0025 0.81277 0.748106 2.30109 0.0061518 133 4 1 6.25821e-07 
-0.172678 -0.233206 -2.61603 0.0025 0.817821 0.754625 2.3068 0.0061138 134 4 1 6.64346e-07 
-0.169631 -0.226151 -2.64597 0.0025 0.8229 0.761193 2.31252 0.00607607 135 4 1 6.23901e-07 
-0.166602 -0.219131 -2.63071 0.0025 0.827978 0.767774 2.31822 0.00603881 136 4 1 5.62578e-07 
-0.163592 -0.212228 -2.59847 0.0025 0.83301 0.774315 2.32384 0.00600233 137 4 1 5.59263e-07 
-0.1606 -0.205423 -2.59398 0.0025 0.838006 0.780827 2.3294 0.00596654 138 4 1 6.28055e-07 
-0.157625 -0.198614 -2.65116 0.0025 0.843029 0.787389 2.33498 0.00593099 139 4 1 6.48525e-07 
-0.154668 -0.191728 -2.67402 0.0025 0.848097 0.79402 2.34059 0.00589555 140 4 1 5.58611e-07 
-0.15173 -0.184918 -2.62861 0.0025 0.853138 0.800633 2.34614 0.00586071 141 4 1 4.91699e-07 
-0.148808 -0.178285 -2.58396 0.0025 0.858106 0.807169 2.35159 0.00582678 142 4 1 5.42324e-07 
-0.145903 -0.171722 -2.61586 0.0025 0.863056 0.813699 2.35701 0.00579337 143 4 1 6.51038e-07 
-0.143014 -0.165028 -2.70819 0.0025 0.86808 0.820336 2.36249 0.00575984 144 4 1 5.90929e-07 
-0.140143 -0.158304 -2.66917 0.0025 0.873127 0.827016 2.36797 0.00572654 145 4 1 4.4089e-07 
-0.137288 -0.151795 -2.58346 0.0025 0.878077 0.833587 2.37333 0.00569426 146 4 1 4.31082e-07 
-0.134448 -0.145493 -2.55355 0.0025 0.882939 0.840062 2.37858 0.0056629 147 4 1 6.03036e-07 
-0.131625 -0.139104 -2.6913 0.0025 0.887867 0.846636 2.38388 0.00563148 148 4 1 6.73558e-07 
-0.128817 -0.132496 -2.74611 0.0025 0.892915 0.853377 2.38929 0.00559963 149 4 1 4.94973e-07 
-0.126025 -0.12596 -2.65521 0.0025 0.897928 0.860086 2.39465 0.00556837 150 4 1 3.38728e-07 
-0.123249 -0.119748 -2.53103 0.0025 0.902784 0.866607 2.39982 0.00553842 151 4 1 4.37439e-07 
-0.120487 -0.113682 -2.58873 0.0025 0.907584 0.873074 2.40491 0.00550913 152 4 1 6.52289e-07 
-0.117739 -0.107352 -2.7466 0.0025 0.912521 0.87973 2.41014 0.00547932 153 4 1 6.26411e-07 
-0.115007 -0.100882 -2.76001 0.0025 0.917562 0.886532 2.41546 0.00544922 154 4 1 3.6686e-07 
-0.11229 -0.0946236 -2.58579 0.0025 0.922481 0.893187 2.42063 0.00542016 155 4 1 2.52098e-07 
-0.109587 -0.0887618 -2.47891 0.0025 0.927198 0.899595 2.42557 0.00539259 156 4 1 4.75759e-07 
-0.106897 -0.0828943 -2.61994 0.0025 0.931926 0.906032 2.4305 0.00536524 157 4 1 6.63129e-07 
-0.104222 -0.0767255 -2.75703 0.0025 0.936834 0.912718 2.43562 0.00533712 158 4 1 5.76359e-07 
-0.10156 -0.0704204 -2.76106 0.0025 0.941831 0.91953 2.44081 0.00530881 159 4 1 3.13359e-07 
-0.0989129 -0.0644024 -2.56055 0.0025 0.946685 0.926168 2.44583 0.00528159 160 4 1 2.60211e-07 
-0.0962787 -0.0587021 -2.52133 0.0025 0.951359 0.932583 2.45065 0.00525564 161 4 1 4.28685e-07 
-0.0936573 -0.0529945 -2.57611 0.0025 0.95603 0.939004 2.45546 0.00522996 162 4 1 5.40081e-07 
-0.0910487 -0.0471424 -2.68494 0.0025 0.960809 0.945584 2.46036 0.00520395 163 4 1 5.80114e-07 
-0.0884533 -0.0411455 -2.7847 0.0025 0.965708 0.952339 2.46538 0.00517755 164 4 1 4.48321e-07 
-0.0858711 -0.0350512 -2.71405 0.0025 0.970582 0.959049 2.47036 0.00515155 165 4 1 -2.23445e-07 
-0.0833017 -0.0298271 -1.95796 0.0025 0.974917 0.965053 2.47474 0.00512864 166 4 1 1.24358e-07 
-0.0807425 -0.0254174 -2.37256 0.0025 0.979046 0.970842 2.4789 0.00510701 167 4 1 1.62664e-06 
-0.0781947 -0.0188393 -3.66474 0.0025 0.984209 0.977992 2.48418 0.00508022 168 4 1 3.92236e-07 
-0.0756622 -0.0119231 -2.44058 0.0025 0.989361 0.985071 2.4894 0.00505377 169 4 1 -1.65576e-06 
-0.0731409 -0.00866347 -0.80598 0.0025 0.992715 0.989808 2.49269 0.00503669 170 4 1 4.39063e-07 
-0.0706255 -0.00538314 -2.59734 0.0025 0.996169 0.994749 2.49613 0.00501923 171 4 1 2.88256e-06 
-0.0681216 0.00229437 -4.43464 0.0025 1.00185 1.00263 2.50192 0.00499075 172 4 1 8.09284e-08 
-0.0656347 0.00968871 -2.30257 0.0025 1.00727 1.01007 2.50736 0.00496394 173 4 1 -3.02075e-06 
-0.0631577 0.01162 0.3845 0.0025 1.00953 1.01331 2.50949 0.00495281 174 4 1 -4.9028e-07 
-0.0606819 0.0119488 -1.29974 0.0025 1.01102 1.01558 2.51093 0.00494549 175 4 1 2.95341e-06 
-0.0582122 0.0177514 -3.86681 0.0025 1.0151 1.02125 2.51509 0.00492563 176 4 1 2.44507e-07 
-0.0557562 0.0238065 -1.69824 0.0025 1.01935 1.02709 2.51934 0.00490506 177 4 1 -2.67931e-06 
-0.0533071 0.0248313 0.189336 0.0025 1.0207 1.02902 2.52061 0.00489861 178 3 1 -1.46248e-06 
-0.0508576 0.0240689 0.502856 0.0025 1.02017 1.02835 2.52008 0.00490112 179 4 1 -3.33974e-07 
-0.048406 0.0229024 0.599732 0.0025 1.01919 1.02697 2.5191 0.00490585 180 4 1 -1.06306e-07 
-0.0459517 0.021593 0.647817 0.0025 1.01805 1.02536 2.51797 0.00491137 181 4 1 -8.16694e-08 
-0.0434946 0.0201483 0.715804 0.0025 1.01677 1.02356 2.51671 0.00491751 182 4 1 -8.40696e-08 
-0.0410342 0.0185419 0.796255 0.0025 1.01537 1.02158 2.51531 0.00492432 183 4 1 -6.71786e-08 
-0.0385703 0.0167782 0.86951 0.0025 1.01384 1.01944 2.5138 0.00493173 184 4 1 -2.64114e-08 
-0.0361025 0.0148996 0.916942 0.0025 1.01224 1.01718 2.51221 0.00493955 185 4 1 2.7265e-08 
-0.0336307 0.0129743 0.928607 0.0025 1.01061 1.0149 2.51059 0.00494749 186 4 1 8.05621e-08 
-0.031155 0.0110774 0.903566 0.0025 1.00903 1.01267 2.50901 0.00495527 187 4 1 1.23692e-07 
-0.0286755 0.00927676 0.84739 0.0025 1.00753 1.01057 2.50752 0.00496261 188 4 1 1.52117e-07 
-0.0261924 0.00762399 0.768846 0.0025 1.00617 1.00866 2.50616 0.00496932 189 4 1 1.65701e-07 
-0.0237061 0.00615171 0.677191 0.0025 1.00497 1.00697 2.50496 0.00497527 190 4 1 1.66893e-07 
-0.0212171 0.00487469 0.580538 0.0025 1.00393 1.00552 2.50393 0.00498041 191 4 1 1.59106e-07 
-0.0187257 0.00379297 0.485138 0.0025 1.00306 1.0043 2.50306 0.00498474 192 4 1 1.45685e-07 
-0.0162324 0.00289561 0.395269 0.0025 1.00235 1.00329 2.50234 0.00498829 193 4 1 1.29451e-07 
-0.0137374 0.00216417 0.313412 0.0025 1.00178 1.00249 2.50177 0.00499113 194 4 1 1.12583e-07 
-0.0112412 0.00157561 0.240547 0.0025 1.00133 1.00187 2.50133 0.00499334 195 4 1 9.66808e-08 
-0.0087441 0.00110448 0.176465 0.0025 1.001 1.00141 2.501 0.00499499 196 4 1 8.28737e-08 
-0.00624625 0.000724402 0.120054 0.0025 1.00077 1.00108 2.50077 0.00499617 197 4 1 7.19333e-08 
-0.00374793 0.000408953 0.0695526 0.0025 1.00062 1.00087 2.50062 0.00499691 198 4 1 6.43626e-08 
-0.00124934 0.00013205 0.0227627 0.0025 1.00055 1.00077 2.50054 0.00499728 199 4 1 6.04541e-08 
0.00124934 -0.00013205 -0.0227627 0.0025 1.00055 1.00077 2.50054 0.00499728 200 4 1 6.04541e-08 
0.00374793 -0.000408953 -0.0695526 0.0025 1.00062 1.00087 2.50062 0.00499691 201 4 1 6.43626e-08 
0.00624625 -0.000724402 -0.120054 0.0025 1.00077 1.00108 2.50077 0.00499617 202 4 1 7.19333e-08 
0.0087441 -0.00110448 -0.176465 0.0025 1.001 1.00141 2.501 0.00499499 203 4 1 8.28737e-08 
0.0112412 -0.00157561 -0.240547 0.0025 1.00133 1.00187 2.50133 0.00499334 204 4 1 9.66808e-08 
0.0137374 -0.00216417 -0.313412 0.0025 1.00178 1.00249 2.50177 0.00499113 205 4 1 1.12583e-07 
0.0162324 -0.00289561 -0.395269 0.0025 1.00235 1.00329 2.50234 0.00498829 206 4 1 1.29451e-07 
0.0187257 -0.00379297 -0.485138 0.0025 1.00306 1.0043 2.50306 0.00498474 207 4 1 1.45685e-07 
0.0212171 -0.00487469 -0.580538 0.0025 1.00393 1.00552 2.50393 0.00498041 208 4 1 1.59106e-07 
0.0237061 -0.00615171 -0.677191 0.0025 1.00497 1.00697 2.50496 0.00497527 209 4 1 1.66893e-07 
0.0261924 -0.00762399 -0.768846 0.0025 1.00617 1.00866 2.50616 0.00496932 210 4 1 1.65701e-07 
0.0286755 -0.00927676 -0.84739 0.0025 1.00753 1.01057 2.50752 0.00496261 211 4 1 1.52117e-07 
