# Time [s]: 0.357326
# Columns: pos [m], vel [m/s], acc [m/s^2], mass [kg], dens [kg/m^3], pres [Pa], ene [J/kg], sml [m], id, neighbor, alpha, gradh, ...additional?
1.26171 -0.673083 0.000193075 0.0025 0.511055 0.432731 2.15251 0.00978369 0 4 1 -0.000134225 
1.26649 -0.673084 0.000200939 0.0025 0.536912 0.426194 1.95005 0.00931251 1 4 1 0.000179253 
1.27103 -0.673085 0.000209861 0.0025 0.548242 0.430864 1.96851 0.00912006 2 3 1 -1.90585e-05 
1.27561 -0.673086 0.000220157 0.0025 0.545977 0.429199 1.96465 0.0091579 3 5 1 3.4857e-06 
1.28019 -0.673087 0.000231289 0.0025 0.546375 0.429354 1.96459 0.00915123 4 4 1 -1.38703e-07 
1.28476 -0.673088 0.000243071 0.0025 0.546385 0.429324 1.96435 0.00915105 5 4 1 1.43707e-07 
1.28934 -0.673089 0.000255834 0.0025 0.546408 0.429323 1.9643 0.00915067 6 4 1 -3.53539e-09 
1.29391 -0.673091 0.000270222 0.0025 0.546421 0.42932 1.96423 0.00915045 7 4 1 8.20731e-09 
1.29849 -0.673092 0.000286588 0.0025 0.546435 0.429319 1.96418 0.00915022 8 4 1 4.73294e-09 
1.30307 -0.673093 0.00030452 0.0025 0.546447 0.429318 1.96413 0.00915002 9 4 1 5.44224e-09 
1.30764 -0.673095 0.000323027 0.0025 0.546458 0.429317 1.96409 0.00914983 10 4 1 -2.27421e-09 
1.31221 -0.673097 0.000341432 0.0025 0.546469 0.429316 1.96405 0.00914965 11 4 1 4.69395e-09 
1.31679 -0.673098 0.000360314 0.0025 0.546479 0.429315 1.96401 0.00914949 12 4 1 2.8145e-09 
1.32136 -0.6731 0.000381572 0.0025 0.546487 0.429314 1.96397 0.00914935 13 4 1 3.52965e-09 
1.32594 -0.673102 0.000407236 0.0025 0.546494 0.429313 1.96394 0.00914923 14 4 1 2.06891e-09 
1.33051 -0.673105 0.000437743 0.0025 0.546501 0.429312 1.96391 0.00914911 15 4 1 -1.64046e-09 
1.33509 -0.673107 0.000471089 0.0025 0.546508 0.429311 1.96388 0.009149 16 4 1 4.8416e-09 
1.33966 -0.673109 0.000503837 0.0025 0.546513 0.42931 1.96386 0.00914891 17 4 1 1.42644e-09 
1.34424 -0.673112 0.000533547 0.0025 0.546518 0.429308 1.96383 0.00914883 18 4 1 -1.23877e-09 
1.34881 -0.673115 0.00056094 0.0025 0.546522 0.429307 1.96381 0.00914876 19 4 1 2.66278e-09 
1.35339 -0.673118 0.00059006 0.0025 0.546527 0.429305 1.96379 0.00914869 20 4 1 1.1311e-09 
1.35796 -0.673121 0.000626128 0.0025 0.54653 0.429304 1.96377 0.00914863 21 4 1 1.14021e-09 
1.36253 -0.673125 0.000672472 0.0025 0.546533 0.429302 1.96375 0.00914858 22 4 1 9.85903e-10 
1.36711 -0.673128 0.000728611 0.0025 0.546535 0.4293 1.96373 0.00914854 23 4 1 -2.61632e-10 
1.37168 -0.673132 0.000790694 0.0025 0.546538 0.429298 1.96372 0.0091485 24 4 1 1.37917e-09 
1.37626 -0.673137 0.000853851 0.0025 0.546539 0.429296 1.9637 0.00914847 25 4 1 6.40849e-10 
1.38083 -0.673141 0.000914869 0.0025 0.546541 0.429294 1.96369 0.00914845 26 4 1 -4.46719e-10 
1.38541 -0.673146 0.000973645 0.0025 0.546542 0.429291 1.96367 0.00914843 27 4 1 1.14681e-09 
1.38998 -0.673151 0.00103267 0.0025 0.546543 0.429289 1.96366 0.00914842 28 4 1 7.91756e-10 
1.39455 -0.673157 0.00109452 0.0025 0.546543 0.429286 1.96364 0.00914841 29 4 1 -8.46729e-10 
1.39913 -0.673163 0.00115787 0.0025 0.546543 0.429283 1.96363 0.00914841 30 3 1 4.22082e-10 
1.4037 -0.67317 0.00121393 0.0025 0.546543 0.42928 1.96361 0.00914842 31 4 1 1.89992e-09 
1.40828 -0.673177 0.0012464 0.0025 0.546542 0.429276 1.9636 0.00914843 32 4 1 -8.70778e-10 
1.41285 -0.673186 0.00123864 0.0025 0.546541 0.429273 1.96359 0.00914844 33 4 1 -7.53485e-10 
1.41743 -0.673195 0.00118751 0.0025 0.54654 0.42927 1.96358 0.00914846 34 4 1 2.27904e-09 
1.422 -0.673206 0.00111641 0.0025 0.546539 0.429266 1.96357 0.00914847 35 4 1 -2.1838e-11 
1.42657 -0.673219 0.00107604 0.0025 0.546538 0.429263 1.96355 0.00914849 36 4 1 -7.87021e-10 
1.43115 -0.673233 0.00112675 0.0025 0.546537 0.42926 1.96354 0.00914851 37 4 1 1.28417e-09 
1.43572 -0.673248 0.0013111 0.0025 0.546536 0.429257 1.96353 0.00914853 38 4 1 -3.77654e-10 
1.4403 -0.673264 0.00163476 0.0025 0.546534 0.429253 1.96352 0.00914856 39 4 1 -1.54637e-09 
1.44487 -0.67328 0.00206866 0.0025 0.546531 0.429248 1.96351 0.00914861 40 4 1 -3.82309e-10 
1.44945 -0.673297 0.00256763 0.0025 0.546527 0.429242 1.9635 0.00914867 41 4 1 -8.28779e-10 
1.45402 -0.673313 0.00308934 0.0025 0.546522 0.429235 1.96348 0.00914876 42 4 1 -1.96907e-09 
1.45859 -0.67333 0.00360352 0.0025 0.546516 0.429226 1.96347 0.00914886 43 4 1 -1.34652e-09 
1.46317 -0.673347 0.00409468 0.0025 0.546508 0.429216 1.96345 0.00914899 44 4 1 -3.33632e-10 
1.46774 -0.673366 0.00456521 0.0025 0.546499 0.429205 1.96343 0.00914914 45 4 1 -1.64182e-09 
1.47232 -0.673386 0.00503658 0.0025 0.546489 0.429193 1.96341 0.00914931 46 4 1 -2.01966e-09 
1.47689 -0.673407 0.00554108 0.0025 0.546478 0.429179 1.96339 0.00914951 47 4 1 -8.14498e-10 
1.48147 -0.673431 0.00610425 0.0025 0.546465 0.429164 1.96336 0.00914972 48 4 1 -1.2977e-09 
1.48604 -0.673458 0.00673195 0.0025 0.54645 0.429147 1.96334 0.00914996 49 4 1 -2.37404e-09 
1.49062 -0.673487 0.00741853 0.0025 0.546435 0.429128 1.96331 0.00915023 50 4 1 -2.25542e-09 
1.49519 -0.67352 0.00817208 0.0025 0.546417 0.429107 1.96328 0.00915052 51 4 1 -1.55232e-09 
1.49977 -0.673557 0.00903037 0.0025 0.546397 0.429085 1.96325 0.00915086 52 4 1 -2.60605e-09 
-0.495657 -0.673599 0.0100444 0.0025 0.546375 0.429059 1.96321 0.00915123 53 4 1 -3.79658e-09 
-0.491081 -0.673645 0.0112396 0.0025 0.54635 0.429031 1.96317 0.00915164 54 4 1 -3.44206e-09 
-0.486505 -0.673697 0.0125943 0.0025 0.546322 0.429 1.96313 0.00915211 55 4 1 -3.27854e-09 
-0.481929 -0.673755 0.0140656 0.0025 0.546291 0.428964 1.96308 0.00915263 56 4 1 -4.66601e-09 
-0.477353 -0.67382 0.0156506 0.0025 0.546256 0.428925 1.96302 0.00915322 57 4 1 -5.41917e-09 
-0.472776 -0.673894 0.0174224 0.0025 0.546217 0.428881 1.96296 0.00915388 58 4 1 -4.69383e-09 
-0.468199 -0.673977 0.0194808 0.0025 0.546173 0.428832 1.9629 0.00915461 59 4 1 -5.5908e-09 
-0.463621 -0.674069 0.0218198 0.0025 0.546124 0.428777 1.96282 0.00915543 60 4 1 -6.75187e-09 
-0.459044 -0.674171 0.0242381 0.0025 0.54607 0.428717 1.96274 0.00915634 61 4 1 -6.45396e-09 
-0.454465 -0.674283 0.0264683 0.0025 0.54601 0.428651 1.96265 0.00915734 62 4 1 -5.05932e-09 
-0.449886 -0.674406 0.0284644 0.0025 0.545946 0.428579 1.96255 0.00915842 63 4 1 -4.45443e-09 
-0.445307 -0.67454 0.0304287 0.0025 0.545877 0.428503 1.96245 0.00915957 64 4 1 -4.04171e-09 
-0.440727 -0.674681 0.0323573 0.0025 0.545805 0.428424 1.96235 0.00916077 65 4 1 -2.37123e-09 
-0.436146 -0.674824 0.0336868 0.0025 0.545731 0.428342 1.96224 0.00916202 66 4 1 4.48758e-10 
-0.431565 -0.674966 0.0336005 0.0025 0.545657 0.42826 1.96213 0.00916326 67 4 1 4.7449e-09 
-0.426983 -0.675103 0.0316376 0.0025 0.545587 0.428182 1.96202 0.00916444 68 4 1 1.01875e-08 
-0.4224 -0.675228 0.0277956 0.0025 0.545525 0.428114 1.96193 0.00916548 69 4 1 1.58868e-08 
-0.417817 -0.675334 0.0221277 0.0025 0.545476 0.428059 1.96186 0.00916631 70 4 1 2.16696e-08 
-0.413234 -0.675413 0.0150413 0.0025 0.545445 0.428025 1.96181 0.00916684 71 4 1 2.39163e-08 
-0.40865 -0.675442 0.00433545 0.0025 0.545433 0.428011 1.96179 0.00916703 72 5 1 1.84924e-08 
-0.404067 -0.675456 0.00874021 0.0025 0.545438 0.428019 1.9618 0.00916694 73 4 1 9.45853e-08 
-0.399483 -0.675363 -0.0576173 0.0025 0.545523 0.428117 1.96191 0.00916552 74 4 1 2.45591e-07 
-0.394901 -0.674837 -0.177158 0.0025 0.545806 0.428431 1.96232 0.00916076 75 4 1 3.18793e-07 
-0.390323 -0.673802 -0.278943 0.0025 0.546342 0.429022 1.96309 0.00915177 76 4 1 3.85663e-07 
-0.38575 -0.672326 -0.411626 0.0025 0.547173 0.429943 1.96428 0.00913788 77 4 1 6.6275e-07 
-0.381185 -0.66993 -0.697333 0.0025 0.548478 0.431389 1.96615 0.00911613 78 4 1 1.01007e-06 
-0.376633 -0.66616 -1.04025 0.0025 0.550453 0.433566 1.96898 0.00908343 79 4 1 1.14815e-06 
-0.372101 -0.661041 -1.32147 0.0025 0.553094 0.436474 1.97275 0.00904006 80 4 1 1.09048e-06 
-0.367593 -0.654979 -1.50204 0.0025 0.556249 0.439956 1.97724 0.00898879 81 4 1 1.01796e-06 
-0.363112 -0.648318 -1.63698 0.0025 0.559772 0.44386 1.98224 0.00893221 82 4 1 1.04799e-06 
-0.358661 -0.64111 -1.77211 0.0025 0.563607 0.448124 1.98766 0.00887142 83 4 1 1.17763e-06 
-0.354241 -0.633355 -1.93692 0.0025 0.567771 0.452766 1.99352 0.00880637 84 4 1 1.32564e-06 
-0.349854 -0.624965 -2.10561 0.0025 0.572283 0.457811 1.99984 0.00873694 85 4 1 1.40889e-06 
-0.345504 -0.616022 -2.25099 0.0025 0.577119 0.463233 2.00658 0.00866373 86 4 1 1.42325e-06 
-0.341191 -0.606649 -2.36261 0.0025 0.582215 0.468966 2.01365 0.00858789 87 4 1 1.36342e-06 
-0.336916 -0.597033 -2.42148 0.0025 0.58748 0.474908 2.02092 0.00851093 88 4 1 1.24844e-06 
-0.332679 -0.587385 -2.43334 0.0025 0.59281 0.480948 2.02823 0.0084344 89 4 1 1.14078e-06 
-0.328481 -0.577814 -2.42357 0.0025 0.598134 0.487003 2.0355 0.00835933 90 4 1 1.05547e-06 
-0.32432 -0.568432 -2.39914 0.0025 0.603409 0.493026 2.04266 0.00828625 91 4 1 1.00643e-06 
-0.320195 -0.559202 -2.38542 0.0025 0.608626 0.499002 2.0497 0.00821523 92 4 1 9.48573e-07 
-0.316105 -0.55017 -2.34989 0.0025 0.613772 0.504918 2.05661 0.00814635 93 4 1 8.87247e-07 
-0.312048 -0.541365 -2.31861 0.0025 0.618833 0.510757 2.06338 0.00807972 94 4 1 8.64375e-07 
-0.308025 -0.532739 -2.29885 0.0025 0.623823 0.516531 2.07002 0.0080151 95 4 1 8.35599e-07 
-0.304033 -0.524259 -2.27378 0.0025 0.628747 0.522248 2.07654 0.00795232 96 4 1 8.01993e-07 
-0.300072 -0.515964 -2.25042 0.0025 0.633606 0.527908 2.08294 0.00789133 97 4 1 7.86771e-07 
-0.296142 -0.507795 -2.23577 0.0025 0.638412 0.533522 2.08925 0.00783194 98 4 1 7.84705e-07 
-0.29224 -0.499736 -2.22958 0.0025 0.643181 0.539111 2.09547 0.00777386 99 4 1 7.85136e-07 
-0.288368 -0.491783 -2.22725 0.0025 0.647929 0.544692 2.10165 0.00771689 100 4 1 8.12847e-07 
-0.284523 -0.483854 -2.2514 0.0025 0.652684 0.550297 2.1078 0.00766067 101 4 1 8.31536e-07 
-0.280707 -0.475928 -2.26594 0.0025 0.657465 0.555949 2.11396 0.00760497 102 4 1 8.3724e-07 
-0.276918 -0.468007 -2.28851 0.0025 0.662277 0.561656 2.12014 0.00754971 103 4 1 9.08965e-07 
-0.273157 -0.46 -2.35863 0.0025 0.667166 0.56747 2.12639 0.00749439 104 4 1 9.41047e-07 
-0.269424 -0.451851 -2.39688 0.0025 0.672145 0.573406 2.13272 0.00743887 105 4 1 9.1169e-07 
-0.265718 -0.443693 -2.42277 0.0025 0.677182 0.579432 2.1391 0.00738354 106 4 1 9.36472e-07 
-0.26204 -0.435471 -2.47559 0.0025 0.682286 0.585555 2.14553 0.00732831 107 4 1 9.52305e-07 
-0.25839 -0.427166 -2.51107 0.0025 0.68746 0.59178 2.15202 0.00727315 108 4 1 9.2616e-07 
-0.254767 -0.418853 -2.5324 0.0025 0.692678 0.598077 2.15854 0.00721836 109 4 1 9.07093e-07 
-0.251171 -0.410545 -2.5514 0.0025 0.697924 0.604427 2.16507 0.0071641 110 4 1 8.93372e-07 
-0.247602 -0.402277 -2.56672 0.0025 0.703189 0.610819 2.17159 0.00711047 111 4 1 8.67499e-07 
-0.244061 -0.394012 -2.56946 0.0025 0.708458 0.617235 2.17808 0.00705758 112 4 1 8.38548e-07 
-0.240545 -0.385858 -2.56717 0.0025 0.713717 0.62366 2.18453 0.00700558 113 4 1 8.50297e-07 
-0.237055 -0.377728 -2.59271 0.0025 0.718981 0.630109 2.19096 0.00695429 114 4 1 8.39332e-07 
-0.23359 -0.369612 -2.5916 0.0025 0.72425 0.636582 2.19737 0.0069037 115 4 1 7.8954e-07 
-0.230151 -0.361607 -2.57683 0.0025 0.729495 0.643046 2.20372 0.00685406 116 4 1 7.99451e-07 
-0.226736 -0.353654 -2.59865 0.0025 0.734732 0.649519 2.21004 0.0068052 117 4 1 8.05308e-07 
-0.223346 -0.345735 -2.60359 0.0025 0.739975 0.656016 2.21633 0.00675698 118 4 1 7.67768e-07 
-0.219979 -0.337885 -2.59621 0.0025 0.745203 0.662513 2.22258 0.00670958 119 4 1 7.46432e-07 
-0.216636 -0.330126 -2.59138 0.0025 0.750409 0.669002 2.22878 0.00666303 120 4 1 7.43855e-07 
-0.213316 -0.322429 -2.59497 0.0025 0.755602 0.675493 2.23493 0.00661724 121 4 1 7.74999e-07 
-0.210019 -0.314726 -2.63222 0.0025 0.76081 0.68202 2.24108 0.00657194 122 4 1 7.39199e-07 
-0.206744 -0.30706 -2.60746 0.0025 0.766015 0.688559 2.2472 0.00652728 123 4 1 6.74845e-07 
-0.203491 -0.299546 -2.58532 0.0025 0.771176 0.695064 2.25325 0.00648361 124 4 1 7.2715e-07 
-0.20026 -0.292053 -2.63106 0.0025 0.77634 0.701591 2.25927 0.00644047 125 4 1 7.44531e-07 
-0.197051 -0.284535 -2.63937 0.0025 0.781529 0.708162 2.2653 0.00639771 126 4 1 6.67094e-07 
-0.193863 -0.277111 -2.60559 0.0025 0.786688 0.714713 2.27127 0.00635576 127 4 1 6.31562e-07 
-0.190695 -0.269827 -2.5888 0.0025 0.7918 0.721226 2.27716 0.00631473 128 4 1 7.02498e-07 
-0.187548 -0.262536 -2.64674 0.0025 0.796928 0.727775 2.28305 0.00627409 129 4 1 7.10333e-07 
-0.184421 -0.255221 -2.64632 0.0025 0.802086 0.734376 2.28894 0.00623374 130 4 1 6.44764e-07 
-0.181314 -0.247982 -2.63258 0.0025 0.807223 0.740967 2.2948 0.00619408 131 4 1 6.10051e-07 
-0.178227 -0.240853 -2.60745 0.0025 0.812321 0.747527 2.30058 0.0061552 132 4 1 6.3275e-07 
-0.175159 -0.233781 -2.6332 0.0025 0.817407 0.754091 2.30633 0.0061169 133 4 1 6.75042e-07 
-0.17211 -0.226674 -2.6651 0.0025 0.822522 0.760703 2.31209 0.00607886 134 4 1 6.32634e-07 
-0.16908 -0.219601 -2.64757 0.0025 0.827635 0.767329 2.31783 0.00604131 135 4 1 5.68921e-07 
-0.166068 -0.212651 -2.615 0.0025 0.8327 0.773912 2.3235 0.00600456 136 4 1 5.70713e-07 
-0.163075 -0.205798 -2.61449 0.0025 0.837732 0.78047 2.3291 0.00596849 137 4 1 6.34869e-07 
-0.1601 -0.198933 -2.666 0.0025 0.84279 0.787076 2.33471 0.00593267 138 4 1 6.57045e-07 
-0.157142 -0.19199 -2.69473 0.0025 0.847893 0.793752 2.34036 0.00589697 139 4 1 5.6741e-07 
-0.154203 -0.185145 -2.6445 0.0025 0.852969 0.80041 2.34595 0.00586188 140 4 1 4.94437e-07 
-0.151281 -0.178472 -2.59824 0.0025 0.857967 0.806987 2.35144 0.00582773 141 4 1 5.58236e-07 
-0.148375 -0.17185 -2.64171 0.0025 0.862955 0.813566 2.3569 0.00579405 142 4 1 6.64577e-07 
-0.145486 -0.165107 -2.72919 0.0025 0.86802 0.820257 2.36242 0.00576024 143 4 1 5.88905e-07 
-0.142615 -0.158335 -2.68281 0.0025 0.8731 0.82698 2.36795 0.00572672 144 4 1 4.35326e-07 
-0.13976 -0.15181 -2.58964 0.0025 0.878073 0.833582 2.37333 0.00569429 145 4 1 4.45518e-07 
-0.13692 -0.145452 -2.57745 0.0025 0.882965 0.840097 2.3786 0.00566274 146 4 1 6.26865e-07 
-0.134097 -0.138997 -2.71856 0.0025 0.887936 0.846729 2.38395 0.00563104 147 4 1 6.78178e-07 
-0.131289 -0.132318 -2.7656 0.0025 0.893026 0.853524 2.38941 0.00559894 148 4 1 4.85034e-07 
-0.128498 -0.125785 -2.661 0.0025 0.898065 0.860268 2.3948 0.00556753 149 4 1 3.38225e-07 
-0.125722 -0.119566 -2.54151 0.0025 0.902941 0.866819 2.39999 0.00553746 150 4 1 4.65694e-07 
-0.12296 -0.113432 -2.62373 0.0025 0.907781 0.873341 2.40512 0.00550793 151 4 1 6.83458e-07 
-0.120214 -0.107021 -2.7868 0.0025 0.912777 0.880075 2.41041 0.00547779 152 4 1 6.02035e-07 
-0.117483 -0.100505 -2.75389 0.0025 0.917849 0.886918 2.41576 0.00544752 153 4 1 3.35453e-07 
-0.114766 -0.0942596 -2.57912 0.0025 0.922768 0.893576 2.42093 0.00541848 154 4 1 2.79422e-07 
-0.112064 -0.0883961 -2.5043 0.0025 0.927504 0.900014 2.42589 0.00539081 155 4 1 5.21747e-07 
-0.109375 -0.0824468 -2.66554 0.0025 0.932289 0.906528 2.43088 0.00536314 156 4 1 6.79326e-07 
-0.106701 -0.0761736 -2.79196 0.0025 0.937261 0.913298 2.43607 0.00533469 157 4 1 5.42354e-07 
-0.104041 -0.0698603 -2.75172 0.0025 0.942283 0.920146 2.44128 0.00530626 158 4 1 2.83546e-07 
-0.101395 -0.0638546 -2.5515 0.0025 0.94713 0.926778 2.44629 0.00527911 159 4 1 2.85145e-07 
-0.0987615 -0.0581489 -2.54326 0.0025 0.95182 0.933217 2.45113 0.0052531 160 4 1 4.67482e-07 
-0.0961414 -0.0523702 -2.61285 0.0025 0.956539 0.939706 2.45598 0.00522718 161 4 1 5.73162e-07 
-0.0935343 -0.0464409 -2.74029 0.0025 0.961388 0.946381 2.46095 0.00520082 162 4 1 5.86524e-07 
-0.0909406 -0.040322 -2.81864 0.0025 0.966345 0.953213 2.46603 0.00517413 163 4 1 2.97676e-07 
-0.0883601 -0.0343368 -2.56755 0.0025 0.971152 0.959834 2.47094 0.00514852 164 4 1 -2.56057e-07 
-0.085792 -0.029368 -1.94374 0.0025 0.9754 0.965737 2.47522 0.0051261 165 4 1 5.00075e-07 
-0.083234 -0.0245855 -2.73634 0.0025 0.979756 0.971834 2.47963 0.00510331 166 4 1 1.63236e-06 
-0.0806887 -0.0175013 -3.64708 0.0025 0.985131 0.97925 2.48513 0.00507547 167 4 1 -2.83444e-07 
-0.0781585 -0.0112903 -1.87232 0.0025 0.98992 0.985847 2.48995 0.00505091 168 4 1 -1.51399e-06 
-0.0756377 -0.00861171 -0.963261 0.0025 0.993033 0.99029 2.49298 0.00503508 169 4 1 1.3774e-06 
-0.0731234 -0.0042257 -3.37357 0.0025 0.997082 0.996026 2.49706 0.00501463 170 4 1 2.6706e-06 
-0.0706231 0.00422686 -4.27827 0.0025 1.00315 1.00439 2.50324 0.00498431 171 4 1 -1.10594e-06 
-0.0681391 0.0103319 -1.36456 0.0025 1.00785 1.01089 2.50793 0.00496105 172 4 1 -2.91415e-06 
-0.065662 0.0111032 0.419001 0.0025 1.00949 1.01331 2.50942 0.00495301 173 4 1 7.70292e-07 
-0.063186 0.0126646 -2.34732 0.0025 1.01161 1.01641 2.51153 0.00494262 174 4 1 2.93169e-06 
-0.0607194 0.0195841 -3.76533 0.0025 1.01628 1.02286 2.51629 0.00491989 175 4 1 -9.38208e-07 
-0.0582661 0.0244647 -0.944489 0.0025 1.01998 1.02797 2.51995 0.00490205 176 4 1 -2.66391e-06 
-0.0558173 0.0247552 0.269324 0.0025 1.02069 1.02903 2.5206 0.00489864 177 3 1 -1.04504e-06 
-0.0533675 0.0238578 0.536283 0.0025 1.02001 1.02812 2.51991 0.00490191 178 4 1 -2.34063e-07 
-0.0509154 0.0226762 0.594183 0.0025 1.019 1.0267 2.51891 0.00490677 179 4 1 -9.49037e-08 
-0.0484607 0.0213656 0.64903 0.0025 1.01785 1.02507 2.51777 0.00491233 180 4 1 -9.1224e-08 
-0.0460031 0.019902 0.727451 0.0025 1.01655 1.02325 2.51649 0.00491858 181 4 1 -9.24041e-08 
-0.0435421 0.0182601 0.815205 0.0025 1.01512 1.02123 2.51507 0.00492553 182 4 1 -6.7116e-08 
-0.0410775 0.0164559 0.889128 0.0025 1.01356 1.01904 2.51352 0.0049331 183 4 1 -1.84995e-08 
-0.038609 0.014544 0.931619 0.0025 1.01193 1.01675 2.5119 0.00494104 184 4 1 3.94891e-08 
-0.0361365 0.0126001 0.935277 0.0025 1.0103 1.01445 2.51027 0.00494905 185 4 1 9.32286e-08 
-0.03366 0.0107022 0.901745 0.0025 1.00871 1.01223 2.50869 0.00495681 186 4 1 1.34085e-07 
-0.0311797 0.0089167 0.838385 0.0025 1.00723 1.01015 2.50722 0.00496409 187 4 1 1.59037e-07 
-0.0286959 0.0072915 0.75479 0.0025 1.0059 1.00827 2.50589 0.00497069 188 4 1 1.69093e-07 
-0.026209 0.00585511 0.660347 0.0025 1.00472 1.00663 2.50471 0.0049765 189 4 1 1.67292e-07 
-0.0237194 0.00461861 0.562929 0.0025 1.00372 1.00521 2.50371 0.00498148 190 4 1 1.57195e-07 
-0.0212275 0.00357934 0.468449 0.0025 1.00288 1.00404 2.50287 0.00498566 191 4 1 1.4205e-07 
-0.0187337 0.00272472 0.380886 0.0025 1.00219 1.00307 2.50219 0.00498908 192 4 1 1.24479e-07 
-0.0162384 0.00203579 0.302528 0.0025 1.00164 1.0023 2.50164 0.00499181 193 4 1 1.06447e-07 
-0.0137419 0.00148999 0.234283 0.0025 1.00121 1.0017 2.50121 0.00499395 194 4 1 8.93537e-08 
-0.0112445 0.00106337 0.175991 0.0025 1.00089 1.00125 2.50089 0.00499557 195 4 1 7.41538e-08 
-0.00874634 0.000731991 0.126697 0.0025 1.00065 1.00091 2.50065 0.00499676 196 4 1 6.14739e-08 
-0.00624771 0.000472785 0.0848799 0.0025 1.00048 1.00068 2.50048 0.00499759 197 4 1 5.17052e-08 
-0.00374875 0.000263917 0.0486374 0.0025 1.00038 1.00053 2.50038 0.00499811 198 4 1 4.50787e-08 
-0.00124961 8.47088e-05 0.0158265 0.0025 1.00033 1.00046 2.50033 0.00499836 199 4 1 4.17143e-08 
0.00124961 -8.47088e-05 -0.0158265 0.0025 1.00033 1.00046 2.50033 0.00499836 200 4 1 4.17143e-08 
0.00374875 -0.000263917 -0.0486374 0.0025 1.00038 1.00053 2.50038 0.00499811 201 4 1 4.50787e-08 
0.00624771 -0.000472785 -0.0848799 0.0025 1.00048 1.00068 2.50048 0.00499759 202 4 1 5.17052e-08 
0.00874634 -0.000731991 -0.126697 0.0025 1.00065 1.00091 2.50065 0.00499676 203 4 1 6.14739e-08 
0.0112445 -0.00106337 -0.175991 0.0025 1.00089 1.00125 2.50089 0.00499557 204 4 1 7.41538e-08 
0.0137419 -0.00148999 -0.234283 0.0025 1.00121 1.0017 2.50121 0.00499395 205 4 1 8.93537e-08 
0.0162384 -0.00203579 -0.302528 0.0025 1.00164 1.0023 2.50164 0.00499181 206 4 1 1.06447e-07 
0.0187337 -0.00272472 -0.380886 0.0025 1.00219 1.00307 2.50219 0.00498908 207 4 1 1.24479e-07 
0.0212275 -0.00357934 -0.468449 0.0025 1.00288 1.00404 2.50287 0.00498566 208 4 1 1.4205e-07 
0.0237194 -0.00461861 -0.562929 0.0025 1.00372 1.00521 2.50371 0.00498148 209 4 1 1.57195e-07 
0.026209 -0.00585511 -0.660347 0.0025 1.00472 1.00663 2.50471 0.0049765 210 4 1 1.67292e-07 
0.0286959 -0.0072915 -0.75479 0.0025 1.0059 1.00827 2.50589 0.00497069 211 4 1 1.69093e-07 
