# Time [s]: 0.362886
# Columns: pos [m], vel [m/s], acc [m/s^2], mass [kg], dens [kg/m^3], pres [Pa], ene [J/kg], sml [m], id, neighbor, alpha, gradh, ...additional?
1.25797 -0.673082 0.000174644 0.0025 0.511055 0.432732 2.15251 0.00978368 0 4 1 -0.000134225 
1.26275 -0.673083 0.000182337 0.0025 0.536912 0.426195 1.95005 0.0093125 1 4 1 0.000179253 
1.26729 -0.673084 0.000190538 0.0025 0.548242 0.430864 1.96851 0.00912005 2 3 1 -1.90585e-05 
1.27187 -0.673085 0.000199506 0.0025 0.545977 0.4292 1.96465 0.00915789 3 5 1 3.48569e-06 
1.27645 -0.673086 0.000209127 0.0025 0.546375 0.429355 1.96459 0.00915122 4 4 1 -1.387e-07 
1.28102 -0.673087 0.000219746 0.0025 0.546386 0.429325 1.96436 0.00915104 5 4 1 1.43711e-07 
1.2856 -0.673088 0.000231786 0.0025 0.546409 0.429324 1.9643 0.00915065 6 4 1 -3.5327e-09 
1.29017 -0.673089 0.000245294 0.0025 0.546422 0.429321 1.96423 0.00915043 7 4 1 8.2108e-09 
1.29475 -0.67309 0.000259763 0.0025 0.546436 0.42932 1.96418 0.0091502 8 4 1 4.73878e-09 
1.29932 -0.673092 0.000274509 0.0025 0.546448 0.429319 1.96413 0.00915 9 4 1 5.45063e-09 
1.3039 -0.673093 0.000289429 0.0025 0.546459 0.429318 1.96409 0.00914981 10 4 1 -2.26551e-09 
1.30847 -0.673095 0.000305512 0.0025 0.54647 0.429317 1.96405 0.00914963 11 4 1 4.69942e-09 
1.31305 -0.673096 0.000324473 0.0025 0.54648 0.429316 1.96401 0.00914947 12 4 1 2.81478e-09 
1.31762 -0.673098 0.000347551 0.0025 0.546488 0.429316 1.96397 0.00914933 13 4 1 3.52679e-09 
1.3222 -0.6731 0.000374287 0.0025 0.546496 0.429315 1.96394 0.0091492 14 4 1 2.06864e-09 
1.32677 -0.673102 0.000402365 0.0025 0.546502 0.429314 1.96391 0.00914909 15 4 1 -1.63236e-09 
1.33135 -0.673104 0.000428933 0.0025 0.546509 0.429312 1.96388 0.00914898 16 4 1 4.85936e-09 
1.33592 -0.673107 0.000452661 0.0025 0.546515 0.429311 1.96386 0.00914889 17 4 1 1.44876e-09 
1.34049 -0.673109 0.000475053 0.0025 0.54652 0.42931 1.96384 0.0091488 18 4 1 -1.22058e-09 
1.34507 -0.673112 0.000499946 0.0025 0.546524 0.429309 1.96381 0.00914872 19 4 1 2.67037e-09 
1.34964 -0.673115 0.000531381 0.0025 0.546529 0.429307 1.96379 0.00914865 20 4 1 1.12854e-09 
1.35422 -0.673118 0.000571237 0.0025 0.546532 0.429306 1.96377 0.00914859 21 4 1 1.13518e-09 
1.35879 -0.673121 0.000618185 0.0025 0.546535 0.429304 1.96375 0.00914854 22 4 1 9.88731e-10 
1.36337 -0.673125 0.000668557 0.0025 0.546538 0.429303 1.96374 0.0091485 23 4 1 -2.43973e-10 
1.36794 -0.673128 0.000718481 0.0025 0.54654 0.429301 1.96372 0.00914846 24 4 1 1.41166e-09 
1.37251 -0.673132 0.000765903 0.0025 0.546542 0.429299 1.9637 0.00914842 25 4 1 6.81973e-10 
1.37709 -0.673136 0.000811311 0.0025 0.546544 0.429297 1.96369 0.0091484 26 4 1 -4.04762e-10 
1.38166 -0.673141 0.000856613 0.0025 0.546545 0.429295 1.96367 0.00914837 27 4 1 1.18628e-09 
1.38624 -0.673146 0.000902347 0.0025 0.546546 0.429292 1.96366 0.00914836 28 4 1 8.35066e-10 
1.39081 -0.673151 0.000944235 0.0025 0.546547 0.42929 1.96365 0.00914835 29 4 1 -7.8244e-10 
1.39539 -0.673157 0.000971284 0.0025 0.546547 0.429287 1.96363 0.00914834 30 4 1 5.28718e-10 
1.39996 -0.673164 0.000968416 0.0025 0.546547 0.429285 1.96362 0.00914834 31 3 1 2.0588e-09 
1.40453 -0.673171 0.000925219 0.0025 0.546547 0.429282 1.96361 0.00914834 32 4 1 -6.80196e-10 
1.40911 -0.67318 0.000847971 0.0025 0.546547 0.42928 1.9636 0.00914834 33 5 1 -5.89238e-10 
1.41368 -0.67319 0.00076709 0.0025 0.546547 0.429277 1.96359 0.00914834 34 3 1 2.34e-09 
1.41826 -0.673201 0.000731903 0.0025 0.546547 0.429275 1.96358 0.00914834 35 4 1 -1.18142e-10 
1.42283 -0.673214 0.000792101 0.0025 0.546547 0.429273 1.96357 0.00914834 36 4 1 -1.03189e-09 
1.4274 -0.673227 0.000975944 0.0025 0.546547 0.42927 1.96356 0.00914835 37 4 1 9.67348e-10 
1.43198 -0.673241 0.0012792 0.0025 0.546546 0.429267 1.96355 0.00914837 38 4 1 -6.59163e-10 
1.43655 -0.673255 0.00167094 0.0025 0.546544 0.429264 1.96354 0.0091484 39 4 1 -1.70685e-09 
1.44113 -0.673269 0.00210943 0.0025 0.546541 0.429259 1.96352 0.00914844 40 4 1 -3.87303e-10 
1.4457 -0.673282 0.00255674 0.0025 0.546537 0.429253 1.96351 0.0091485 41 4 1 -6.89862e-10 
1.45028 -0.673296 0.00298644 0.0025 0.546532 0.429246 1.9635 0.00914859 42 4 1 -1.72337e-09 
1.45485 -0.67331 0.00338727 0.0025 0.546526 0.429238 1.96348 0.00914869 43 4 1 -1.04308e-09 
1.45942 -0.673325 0.00376507 0.0025 0.546519 0.429229 1.96346 0.00914881 44 4 1 -2.52766e-11 
1.464 -0.673341 0.00414027 0.0025 0.546511 0.429218 1.96345 0.00914894 45 4 1 -1.36827e-09 
1.46857 -0.673359 0.00453748 0.0025 0.546502 0.429207 1.96343 0.0091491 46 4 1 -1.78412e-09 
1.47315 -0.673378 0.00497196 0.0025 0.546492 0.429195 1.96341 0.00914927 47 4 1 -5.78891e-10 
1.47772 -0.673399 0.00544521 0.0025 0.546481 0.429181 1.96339 0.00914946 48 4 1 -1.01497e-09 
1.4823 -0.673423 0.00595647 0.0025 0.546468 0.429166 1.96336 0.00914967 49 4 1 -2.03575e-09 
1.48687 -0.673449 0.00652063 0.0025 0.546454 0.42915 1.96334 0.0091499 50 4 1 -1.90346e-09 
1.49145 -0.673478 0.00717172 0.0025 0.546439 0.429131 1.96331 0.00915016 51 4 1 -1.22988e-09 
1.49602 -0.67351 0.00794309 0.0025 0.546421 0.429111 1.96328 0.00915045 52 4 1 -2.29043e-09 
-0.499403 -0.673546 0.00884114 0.0025 0.546402 0.429089 1.96325 0.00915077 53 4 1 -3.39174e-09 
-0.494827 -0.673586 0.00984274 0.0025 0.54638 0.429065 1.96321 0.00915113 54 4 1 -2.86149e-09 
-0.490251 -0.673631 0.0109289 0.0025 0.546356 0.429037 1.96317 0.00915154 55 4 1 -2.55351e-09 
-0.485676 -0.673682 0.0121288 0.0025 0.546329 0.429006 1.96313 0.00915199 56 4 1 -3.96153e-09 
-0.481099 -0.673739 0.0135236 0.0025 0.546299 0.428972 1.96308 0.0091525 57 4 1 -4.89775e-09 
-0.476523 -0.673803 0.0151816 0.0025 0.546265 0.428934 1.96303 0.00915307 58 4 1 -4.31971e-09 
-0.471946 -0.673875 0.0170694 0.0025 0.546227 0.428891 1.96297 0.0091537 59 4 1 -5.11005e-09 
-0.467369 -0.673955 0.0190522 0.0025 0.546184 0.428843 1.96291 0.00915442 60 4 1 -6.01756e-09 
-0.462792 -0.674045 0.0210444 0.0025 0.546137 0.42879 1.96284 0.00915522 61 4 1 -5.84473e-09 
-0.458214 -0.674145 0.0231532 0.0025 0.546084 0.428732 1.96276 0.0091561 62 4 1 -5.35025e-09 
-0.453636 -0.674256 0.0255593 0.0025 0.546027 0.428668 1.96267 0.00915706 63 4 1 -5.9943e-09 
-0.449057 -0.674377 0.0281858 0.0025 0.545964 0.428599 1.96258 0.00915811 64 4 1 -6.25954e-09 
-0.444478 -0.674505 0.0305839 0.0025 0.545896 0.428523 1.96248 0.00915925 65 4 1 -4.52578e-09 
-0.439898 -0.67464 0.0322312 0.0025 0.545824 0.428444 1.96237 0.00916046 66 4 1 -1.81963e-09 
-0.435317 -0.674781 0.0328593 0.0025 0.545751 0.428362 1.96226 0.00916169 67 4 1 1.326e-09 
-0.430736 -0.674923 0.0324321 0.0025 0.545678 0.428282 1.96215 0.00916292 68 4 1 4.89697e-09 
-0.426154 -0.675064 0.0309771 0.0025 0.545609 0.428205 1.96205 0.00916408 69 4 1 8.80507e-09 
-0.421572 -0.675193 0.0284785 0.0025 0.545547 0.428137 1.96196 0.00916512 70 4 1 1.23337e-08 
-0.416989 -0.675301 0.0243003 0.0025 0.545495 0.428079 1.96188 0.00916599 71 4 1 1.78085e-08 
-0.412406 -0.675381 0.0174393 0.0025 0.545458 0.428038 1.96183 0.00916662 72 4 1 2.51468e-08 
-0.407823 -0.67542 0.00665575 0.0025 0.545441 0.428019 1.9618 0.0091669 73 4 1 1.77364e-08 
-0.403239 -0.675426 0.00895141 0.0025 0.54544 0.428019 1.9618 0.00916692 74 5 1 6.19574e-08 
-0.398656 -0.67539 -0.030785 0.0025 0.545492 0.428081 1.96187 0.00916604 75 4 1 2.07592e-07 
-0.394073 -0.675026 -0.145789 0.0025 0.545713 0.428328 1.96218 0.00916233 76 4 1 3.14424e-07 
-0.389493 -0.674109 -0.258469 0.0025 0.546185 0.428847 1.96286 0.00915441 77 4 1 3.48748e-07 
-0.384919 -0.672762 -0.362635 0.0025 0.546926 0.429668 1.96392 0.00914201 78 4 1 5.46376e-07 
-0.380351 -0.670684 -0.596009 0.0025 0.548065 0.430932 1.96555 0.009123 79 4 1 8.99585e-07 
-0.375796 -0.667374 -0.930397 0.0025 0.549817 0.432865 1.96806 0.00909393 80 4 1 1.11935e-06 
-0.371257 -0.662678 -1.23863 0.0025 0.55225 0.435543 1.97154 0.00905387 81 4 1 1.10679e-06 
-0.366742 -0.65689 -1.44425 0.0025 0.555245 0.438846 1.97581 0.00900503 82 4 1 1.01889e-06 
-0.362252 -0.650437 -1.58663 0.0025 0.558641 0.442604 1.98064 0.0089503 83 4 1 1.00362e-06 
-0.357791 -0.643457 -1.71022 0.0025 0.562347 0.44672 1.98588 0.0088913 84 4 1 1.09211e-06 
-0.353361 -0.635981 -1.85685 0.0025 0.566356 0.451186 1.99153 0.00882837 85 4 1 1.23821e-06 
-0.348963 -0.627913 -2.02132 0.0025 0.570694 0.456032 1.99762 0.00876126 86 4 1 1.34387e-06 
-0.3446 -0.619281 -2.1701 0.0025 0.575356 0.461254 2.00413 0.00869027 87 4 1 1.37971e-06 
-0.340272 -0.610181 -2.29028 0.0025 0.580293 0.4668 2.01099 0.00861634 88 4 1 1.35274e-06 
-0.335983 -0.600761 -2.36935 0.0025 0.585428 0.472589 2.01809 0.00854075 89 4 1 1.25931e-06 
-0.331732 -0.591246 -2.39609 0.0025 0.590666 0.478515 2.02529 0.00846502 90 4 1 1.15475e-06 
-0.327518 -0.581761 -2.39853 0.0025 0.595925 0.484488 2.03248 0.00839032 91 4 1 1.05751e-06 
-0.323341 -0.572439 -2.37393 0.0025 0.60115 0.490444 2.03959 0.00831739 92 4 1 9.97234e-07 
-0.3192 -0.563287 -2.36046 0.0025 0.60632 0.496358 2.04659 0.00824647 93 4 1 9.49922e-07 
-0.315094 -0.554292 -2.33313 0.0025 0.611427 0.50222 2.05347 0.00817759 94 4 1 8.83542e-07 
-0.311023 -0.545503 -2.29807 0.0025 0.616454 0.508009 2.0602 0.0081109 95 4 1 8.45999e-07 
-0.306983 -0.536921 -2.27305 0.0025 0.621402 0.513728 2.0668 0.00804631 96 4 1 8.28408e-07 
-0.302976 -0.528475 -2.25426 0.0025 0.626286 0.519389 2.07328 0.00798357 97 4 1 8.00844e-07 
-0.299 -0.520206 -2.23161 0.0025 0.631111 0.524999 2.07966 0.00792254 98 4 1 7.73796e-07 
-0.295053 -0.512092 -2.21253 0.0025 0.635878 0.530559 2.08592 0.00786315 99 4 1 7.70613e-07 
-0.291136 -0.504091 -2.20728 0.0025 0.640604 0.536089 2.09211 0.00780514 100 4 1 7.59655e-07 
-0.287248 -0.496195 -2.19366 0.0025 0.645298 0.541597 2.09823 0.00774835 101 4 1 7.68193e-07 
-0.283388 -0.488368 -2.20527 0.0025 0.649979 0.547107 2.1043 0.00769256 102 4 1 8.03857e-07 
-0.279556 -0.480545 -2.22865 0.0025 0.654679 0.552653 2.11038 0.00763733 103 4 1 8.04643e-07 
-0.275751 -0.47272 -2.23752 0.0025 0.659402 0.558244 2.11645 0.00758262 104 4 1 8.343e-07 
-0.271973 -0.464905 -2.27954 0.0025 0.664169 0.563904 2.12256 0.00752821 105 4 1 9.0568e-07 
-0.268222 -0.456947 -2.34393 0.0025 0.669023 0.569681 2.12875 0.00747359 106 4 1 9.0453e-07 
-0.264499 -0.448908 -2.3699 0.0025 0.673954 0.575567 2.13501 0.00741891 107 4 1 8.88319e-07 
-0.260803 -0.440856 -2.40471 0.0025 0.678939 0.581538 2.14132 0.00736443 108 4 1 9.19281e-07 
-0.257135 -0.432728 -2.45352 0.0025 0.683994 0.587607 2.14768 0.00731001 109 4 1 9.13864e-07 
-0.253493 -0.424546 -2.47795 0.0025 0.689106 0.593764 2.15408 0.00725578 110 4 1 8.94411e-07 
-0.249879 -0.416347 -2.50439 0.0025 0.694257 0.599985 2.16051 0.00720195 111 4 1 8.72062e-07 
-0.246291 -0.408189 -2.5118 0.0025 0.699429 0.606252 2.16693 0.00714869 112 4 1 8.61733e-07 
-0.24273 -0.40003 -2.53437 0.0025 0.704615 0.612554 2.17335 0.00709607 113 4 1 8.34816e-07 
-0.239195 -0.391918 -2.52612 0.0025 0.709803 0.618876 2.17973 0.00704421 114 4 1 8.05645e-07 
-0.235686 -0.383898 -2.52973 0.0025 0.714977 0.625203 2.18607 0.00699323 115 4 1 8.3212e-07 
-0.232202 -0.375893 -2.55924 0.0025 0.720164 0.631561 2.1924 0.00694287 116 4 1 8.06973e-07 
-0.228743 -0.367924 -2.54794 0.0025 0.725352 0.637938 2.19871 0.00689321 117 4 1 7.66317e-07 
-0.225308 -0.360062 -2.545 0.0025 0.730517 0.644308 2.20496 0.00684447 118 4 1 7.74487e-07 
-0.221898 -0.352242 -2.55649 0.0025 0.735676 0.650687 2.21117 0.00679647 119 4 1 7.69923e-07 
-0.218512 -0.344446 -2.56159 0.0025 0.740833 0.657081 2.21736 0.00674916 120 4 1 7.48077e-07 
-0.215149 -0.33673 -2.55992 0.0025 0.745979 0.663479 2.22351 0.0067026 121 4 1 7.18158e-07 
-0.211809 -0.329083 -2.54581 0.0025 0.751101 0.669866 2.2296 0.00665689 122 4 1 7.21241e-07 
-0.208492 -0.321523 -2.55943 0.0025 0.756212 0.676257 2.23565 0.0066119 123 4 1 7.58624e-07 
-0.205197 -0.313943 -2.59419 0.0025 0.761344 0.68269 2.24171 0.00656733 124 4 1 7.11073e-07 
-0.201924 -0.306396 -2.56588 0.0025 0.766469 0.68913 2.24774 0.00652342 125 4 1 6.54931e-07 
-0.198674 -0.299 -2.54905 0.0025 0.771551 0.695537 2.25368 0.00648046 126 4 1 6.99437e-07 
-0.195444 -0.291626 -2.58372 0.0025 0.776633 0.70196 2.25961 0.00643805 127 4 1 7.25461e-07 
-0.192235 -0.284239 -2.60505 0.0025 0.781741 0.708431 2.26554 0.00639598 128 4 1 6.52742e-07 
-0.189048 -0.276908 -2.56655 0.0025 0.786826 0.714888 2.27143 0.00635465 129 4 1 6.12166e-07 
-0.185881 -0.269745 -2.55402 0.0025 0.791863 0.721306 2.27723 0.00631422 130 4 1 6.69461e-07 
-0.182734 -0.262567 -2.59335 0.0025 0.796907 0.727748 2.28302 0.00627426 131 4 1 6.88966e-07 
-0.179606 -0.255379 -2.61026 0.0025 0.80198 0.73424 2.28882 0.00623457 132 4 1 6.40507e-07 
-0.176499 -0.248231 -2.59762 0.0025 0.807046 0.740739 2.29459 0.00619544 133 4 1 5.90708e-07 
-0.173411 -0.241198 -2.56963 0.0025 0.812071 0.747205 2.3003 0.0061571 134 4 1 6.03908e-07 
-0.170342 -0.234241 -2.5854 0.0025 0.817077 0.753663 2.30596 0.00611938 135 4 1 6.48946e-07 
-0.167291 -0.227257 -2.61899 0.0025 0.822106 0.760164 2.31162 0.00608194 136 4 1 6.27875e-07 
-0.16426 -0.220283 -2.61586 0.0025 0.827144 0.766693 2.31728 0.0060449 137 4 1 5.69748e-07 
-0.161246 -0.213411 -2.58881 0.0025 0.83215 0.773195 2.32288 0.00600854 138 4 1 5.39498e-07 
-0.158251 -0.206651 -2.56438 0.0025 0.837108 0.779655 2.32841 0.00597294 139 4 1 5.92337e-07 
-0.155274 -0.199914 -2.61013 0.0025 0.842073 0.786138 2.33392 0.00593773 140 4 1 6.45919e-07 
-0.152313 -0.193105 -2.65359 0.0025 0.847089 0.792699 2.33947 0.00590257 141 4 1 5.8096e-07 
-0.149371 -0.186318 -2.62447 0.0025 0.852103 0.799273 2.345 0.00586783 142 4 1 4.92029e-07 
-0.146446 -0.179685 -2.57111 0.0025 0.85705 0.805777 2.35043 0.00583397 143 4 1 4.99631e-07 
-0.143537 -0.173186 -2.56821 0.0025 0.861948 0.812236 2.3558 0.00580081 144 4 1 6.1872e-07 
-0.140645 -0.166602 -2.66693 0.0025 0.866902 0.81878 2.3612 0.00576766 145 4 1 6.23688e-07 
-0.137769 -0.159931 -2.67252 0.0025 0.871916 0.825413 2.36666 0.00573449 146 4 1 4.823e-07 
-0.13491 -0.153392 -2.59966 0.0025 0.876872 0.831984 2.37203 0.00570209 147 4 1 3.94176e-07 
-0.132067 -0.147099 -2.51563 0.0025 0.881709 0.838421 2.37725 0.00567081 148 4 1 5.17079e-07 
-0.129239 -0.140822 -2.61094 0.0025 0.886546 0.844873 2.38246 0.00563987 149 4 1 6.68995e-07 
-0.126427 -0.134336 -2.71853 0.0025 0.891512 0.851503 2.38779 0.00560845 150 4 1 5.75378e-07 
-0.123631 -0.127793 -2.68684 0.0025 0.89652 0.858199 2.39315 0.00557712 151 4 1 3.69796e-07 
-0.12085 -0.121497 -2.54497 0.0025 0.901398 0.864743 2.39835 0.00554694 152 4 1 3.5847e-07 
-0.118084 -0.11549 -2.52227 0.0025 0.906154 0.871145 2.4034 0.00551782 153 4 1 5.64626e-07 
-0.115332 -0.109341 -2.65978 0.0025 0.910979 0.87765 2.40851 0.0054886 154 4 1 6.62392e-07 
-0.112595 -0.102955 -2.75655 0.0025 0.915952 0.884359 2.41376 0.0054588 155 4 1 4.82059e-07 
-0.109873 -0.0966083 -2.654 0.0025 0.920909 0.891056 2.41898 0.00542942 156 4 1 2.50616e-07 
-0.107166 -0.0906538 -2.47132 0.0025 0.925659 0.897501 2.42396 0.00540156 157 4 1 3.49636e-07 
-0.104472 -0.0848959 -2.5248 0.0025 0.93031 0.903831 2.42882 0.00537455 158 4 1 5.90765e-07 
-0.101791 -0.0789326 -2.67169 0.0025 0.935088 0.910339 2.4338 0.00534709 159 4 1 6.48208e-07 
-0.0991245 -0.0726982 -2.77856 0.0025 0.940032 0.917076 2.43894 0.00531897 160 4 1 4.22161e-07 
-0.0964721 -0.0665571 -2.62259 0.0025 0.944934 0.923769 2.44403 0.00529138 161 4 1 2.40183e-07 
-0.0938331 -0.0607959 -2.50655 0.0025 0.949637 0.930217 2.44888 0.00526517 162 4 1 3.36361e-07 
-0.0912069 -0.0551733 -2.51521 0.0025 0.95425 0.936555 2.45363 0.00523972 163 4 1 4.92659e-07 
-0.0885934 -0.049435 -2.61813 0.0025 0.95893 0.942993 2.45843 0.00521414 164 4 1 5.13243e-07 
-0.0859927 -0.0436059 -2.65371 0.0025 0.963703 0.949574 2.46332 0.00518832 165 4 1 6.12423e-07 
-0.083405 -0.0375909 -2.86906 0.0025 0.968603 0.956329 2.46834 0.00516208 166 4 1 1.75058e-07 
-0.0808306 -0.03167 -2.35405 0.0025 0.973273 0.962761 2.47309 0.00513731 167 4 1 -4.06546e-07 
-0.0782677 -0.0272713 -1.80648 0.0025 0.977277 0.968354 2.47712 0.00511626 168 4 1 9.04616e-07 
-0.0757143 -0.0221916 -3.08796 0.0025 0.981737 0.97459 2.48164 0.00509301 169 4 1 1.58055e-06 
-0.0731746 -0.0148191 -3.48159 0.0025 0.987195 0.982099 2.48722 0.00506485 170 4 1 -8.65528e-07 
-0.0706494 -0.00941975 -1.41369 0.0025 0.991567 0.988148 2.49159 0.00504253 171 4 1 -1.26463e-06 
-0.0681321 -0.00706474 -1.15386 0.0025 0.99448 0.992333 2.49443 0.00502775 172 4 1 1.86781e-06 
-0.0656217 -0.00206098 -3.66059 0.0025 0.998791 0.998409 2.49879 0.00500605 173 4 1 2.30208e-06 
-0.063126 0.00635488 -3.98294 0.0025 1.00481 1.0067 2.50491 0.00497605 174 4 1 -1.62009e-06 
-0.0606456 0.0116117 -0.929226 0.0025 1.009 1.0125 2.50905 0.00495541 175 4 1 -2.68804e-06 
-0.0581706 0.0118868 0.381584 0.0025 1.01033 1.01452 2.51025 0.00494889 176 4 1 1.30839e-06 
-0.0556967 0.0140395 -2.74371 0.0025 1.01268 1.01791 2.51261 0.00493739 177 4 1 2.55215e-06 
-0.0532331 0.0209759 -3.32777 0.0025 1.01726 1.02421 2.51727 0.00491514 178 4 1 -1.5488e-06 
-0.0507815 0.0246774 -0.493253 0.0025 1.02028 1.0284 2.52024 0.00490061 179 4 1 -2.41872e-06 
-0.0483325 0.0245283 0.369787 0.0025 1.02052 1.0288 2.52042 0.00489948 180 3 1 -7.74952e-07 
-0.045882 0.0234948 0.578375 0.0025 1.01969 1.02767 2.5196 0.00490344 181 4 1 -1.90695e-07 
-0.0434291 0.0222234 0.635335 0.0025 1.0186 1.02613 2.51851 0.00490871 182 4 1 -8.21786e-08 
-0.0409733 0.020827 0.689998 0.0025 1.01737 1.02441 2.5173 0.00491462 183 4 1 -7.36431e-08 
-0.0385145 0.0192935 0.758123 0.0025 1.01603 1.02251 2.51597 0.00492112 184 4 1 -6.867e-08 
-0.0360522 0.0176108 0.83028 0.0025 1.01457 1.02045 2.51452 0.00492821 185 4 1 -4.26202e-08 
-0.0335863 0.0157987 0.887612 0.0025 1.01301 1.01827 2.51297 0.00493578 186 4 1 1.68494e-09 
-0.0311164 0.0139085 0.916096 0.0025 1.01141 1.01601 2.51138 0.00494361 187 4 1 5.31634e-08 
-0.0286426 0.0120085 0.909598 0.0025 1.00981 1.01377 2.50979 0.00495142 188 4 1 1.00489e-07 
-0.026165 0.010168 0.869665 0.0025 1.00828 1.01162 2.50826 0.00495893 189 4 1 1.36314e-07 
-0.0236837 0.0084458 0.802825 0.0025 1.00686 1.00963 2.50685 0.00496592 190 4 1 1.57969e-07 
-0.0211991 0.0068834 0.717668 0.0025 1.00559 1.00784 2.50558 0.00497221 191 4 1 1.66358e-07 
-0.0187115 0.00550401 0.62261 0.0025 1.00448 1.00628 2.50447 0.00497772 192 4 1 1.64313e-07 
-0.0162214 0.00431413 0.52461 0.0025 1.00353 1.00496 2.50353 0.0049824 193 4 1 1.55238e-07 
-0.0137291 0.00330678 0.428679 0.0025 1.00276 1.00387 2.50275 0.00498626 194 4 1 1.42309e-07 
-0.0112351 0.00246498 0.337876 0.0025 1.00213 1.00299 2.50213 0.00498935 195 4 1 1.28136e-07 
-0.00873974 0.00176486 0.253545 0.0025 1.00166 1.00233 2.50165 0.00499173 196 4 1 1.14712e-07 
-0.00624336 0.00117806 0.175639 0.0025 1.00131 1.00184 2.50131 0.00499344 197 4 1 1.03475e-07 
-0.00374629 0.000673585 0.103053 0.0025 1.00109 1.00153 2.50109 0.00499456 198 4 1 9.54093e-08 
-0.00124881 0.000218965 0.0339483 0.0025 1.00098 1.00138 2.50098 0.0049951 199 4 1 9.11066e-08 
0.00124881 -0.000218965 -0.0339483 0.0025 1.00098 1.00138 2.50098 0.0049951 200 4 1 9.11066e-08 
0.00374629 -0.000673585 -0.103053 0.0025 1.00109 1.00153 2.50109 0.00499456 201 4 1 9.54093e-08 
0.00624336 -0.00117806 -0.175639 0.0025 1.00131 1.00184 2.50131 0.00499344 202 4 1 1.03475e-07 
0.00873974 -0.00176486 -0.253545 0.0025 1.00166 1.00233 2.50165 0.00499173 203 4 1 1.14712e-07 
0.0112351 -0.00246498 -0.337876 0.0025 1.00213 1.00299 2.50213 0.00498935 204 4 1 1.28136e-07 
0.0137291 -0.00330678 -0.428679 0.0025 1.00276 1.00387 2.50275 0.00498626 205 4 1 1.42309e-07 
0.0162214 -0.00431413 -0.52461 0.0025 1.00353 1.00496 2.50353 0.0049824 206 4 1 1.55238e-07 
0.0187115 -0.00550401 -0.62261 0.0025 1.00448 1.00628 2.50447 0.00497772 207 4 1 1.64313e-07 
0.0211991 -0.0068834 -0.717668 0.0025 1.00559 1.00784 2.50558 0.00497221 208 4 1 1.66358e-07 
0.0236837 -0.0084458 -0.802825 0.0025 1.00686 1.00963 2.50685 0.00496592 209 4 1 1.57969e-07 
0.026165 -0.010168 -0.869665 0.0025 1.00828 1.01162 2.50826 0.00495893 210 4 1 1.36314e-07 
0.0286426 -0.0120085 -0.909598 0.0025 1.00981 1.01377 2.50979 0.00495142 211 4 1 1.00489e-07 
