# Time [s]: 0.368447
# Columns: pos [m], vel [m/s], acc [m/s^2], mass [kg], dens [kg/m^3], pres [Pa], ene [J/kg], sml [m], id, neighbor, alpha, gradh, ...additional?
1.25423 -0.673082 0.000157966 0.0025 0.511055 0.432732 2.15251 0.00978367 0 4 1 -0.000134225 
1.25901 -0.673082 0.000164909 0.0025 0.536913 0.426195 1.95005 0.0093125 1 4 1 0.000179253 
1.26354 -0.673083 0.000172048 0.0025 0.548243 0.430865 1.96851 0.00912004 2 3 1 -1.90585e-05 
1.26813 -0.673084 0.000179925 0.0025 0.545978 0.429201 1.96465 0.00915788 3 5 1 3.48568e-06 
1.2727 -0.673085 0.00018875 0.0025 0.546376 0.429356 1.96459 0.00915121 4 4 1 -1.38698e-07 
1.27728 -0.673086 0.000198748 0.0025 0.546387 0.429326 1.96436 0.00915103 5 4 1 1.43713e-07 
1.28185 -0.673087 0.000209766 0.0025 0.54641 0.429324 1.9643 0.00915064 6 4 1 -3.5292e-09 
1.28643 -0.673088 0.000221304 0.0025 0.546423 0.429321 1.96423 0.00915042 7 4 1 8.21652e-09 
1.291 -0.673089 0.000232973 0.0025 0.546437 0.429321 1.96418 0.00915019 8 4 1 4.74608e-09 
1.29558 -0.67309 0.000245065 0.0025 0.546449 0.42932 1.96413 0.00914998 9 4 1 5.45723e-09 
1.30015 -0.673092 0.000258718 0.0025 0.54646 0.429319 1.96409 0.0091498 10 4 1 -2.26218e-09 
1.30473 -0.673093 0.00027533 0.0025 0.546471 0.429318 1.96405 0.00914962 11 4 1 4.69902e-09 
1.3093 -0.673095 0.000295495 0.0025 0.546481 0.429318 1.96401 0.00914945 12 4 1 2.81345e-09 
1.31388 -0.673096 0.000318254 0.0025 0.546489 0.429317 1.96398 0.00914931 13 4 1 3.5294e-09 
1.31845 -0.673098 0.000341396 0.0025 0.546497 0.429316 1.96394 0.00914918 14 4 1 2.07871e-09 
1.32303 -0.6731 0.000362815 0.0025 0.546504 0.429315 1.96392 0.00914907 15 4 1 -1.61573e-09 
1.3276 -0.673102 0.000382094 0.0025 0.546511 0.429314 1.96389 0.00914895 16 4 1 4.87696e-09 
1.33218 -0.673104 0.000401129 0.0025 0.546516 0.429313 1.96386 0.00914886 17 4 1 1.46037e-09 
1.33675 -0.673107 0.000423243 0.0025 0.546521 0.429312 1.96384 0.00914878 18 4 1 -1.21854e-09 
1.34133 -0.673109 0.000451279 0.0025 0.546526 0.429311 1.96382 0.00914869 19 4 1 2.66545e-09 
1.3459 -0.673112 0.000485906 0.0025 0.546531 0.42931 1.9638 0.00914862 20 4 1 1.12434e-09 
1.35047 -0.673115 0.000525227 0.0025 0.546534 0.429308 1.96378 0.00914856 21 4 1 1.14007e-09 
1.35505 -0.673118 0.000565883 0.0025 0.546537 0.429307 1.96376 0.0091485 22 4 1 1.00713e-09 
1.35962 -0.673121 0.000604892 0.0025 0.54654 0.429305 1.96374 0.00914846 23 4 1 -2.13619e-10 
1.3642 -0.673124 0.000641058 0.0025 0.546543 0.429304 1.96372 0.00914841 24 4 1 1.44819e-09 
1.36877 -0.673128 0.000675042 0.0025 0.546545 0.429302 1.96371 0.00914838 25 4 1 7.19291e-10 
1.37335 -0.673132 0.000707794 0.0025 0.546547 0.4293 1.96369 0.00914835 26 4 1 -3.66371e-10 
1.37792 -0.673136 0.000737792 0.0025 0.546548 0.429298 1.96368 0.00914832 27 4 1 1.23506e-09 
1.38249 -0.673141 0.000758507 0.0025 0.54655 0.429296 1.96367 0.0091483 28 4 1 9.10849e-10 
1.38707 -0.673147 0.000758348 0.0025 0.54655 0.429294 1.96365 0.00914829 29 4 1 -6.64983e-10 
1.39164 -0.673153 0.000725219 0.0025 0.546551 0.429292 1.96364 0.00914827 30 4 1 6.85458e-10 
1.39622 -0.673159 0.000655483 0.0025 0.546552 0.42929 1.96363 0.00914826 31 4 1 2.22277e-09 
1.40079 -0.673167 0.000563139 0.0025 0.546553 0.429288 1.96362 0.00914825 32 4 1 -5.68252e-10 
1.40536 -0.673176 0.000482302 0.0025 0.546553 0.429287 1.96361 0.00914824 33 4 1 -5.91747e-10 
1.40994 -0.673187 0.000458354 0.0025 0.546554 0.429285 1.9636 0.00914822 34 4 1 2.1936e-09 
1.41451 -0.673198 0.000530498 0.0025 0.546555 0.429284 1.96359 0.00914821 35 4 1 -3.80546e-10 
1.41909 -0.67321 0.000715481 0.0025 0.546555 0.429282 1.96358 0.00914821 36 3 1 -1.33253e-09 
1.42366 -0.673222 0.00100221 0.0025 0.546555 0.42928 1.96357 0.00914821 37 4 1 7.19875e-10 
1.42823 -0.673234 0.00135915 0.0025 0.546554 0.429277 1.96356 0.00914822 38 4 1 -7.88026e-10 
1.43281 -0.673245 0.00174786 0.0025 0.546552 0.429273 1.96355 0.00914825 39 4 1 -1.6955e-09 
1.43738 -0.673257 0.00213468 0.0025 0.54655 0.429268 1.96354 0.0091483 40 4 1 -2.5169e-10 
1.44196 -0.673268 0.00249755 0.0025 0.546546 0.429262 1.96352 0.00914836 41 4 1 -4.68332e-10 
1.44653 -0.67328 0.00282933 0.0025 0.546541 0.429255 1.96351 0.00914844 42 4 1 -1.46429e-09 
1.45111 -0.673292 0.00313797 0.0025 0.546535 0.429248 1.96349 0.00914854 43 4 1 -7.92487e-10 
1.45568 -0.673305 0.00344139 0.0025 0.546529 0.429239 1.96348 0.00914864 44 4 1 1.90525e-10 
1.46025 -0.67332 0.00375743 0.0025 0.546522 0.42923 1.96346 0.00914877 45 4 1 -1.1802e-09 
1.46483 -0.673335 0.00409499 0.0025 0.546513 0.42922 1.96345 0.0091489 46 4 1 -1.59105e-09 
1.4694 -0.673352 0.00445493 0.0025 0.546505 0.429208 1.96343 0.00914905 47 4 1 -3.53908e-10 
1.47398 -0.673371 0.00484121 0.0025 0.546495 0.429196 1.96341 0.00914922 48 4 1 -7.65579e-10 
1.47855 -0.673392 0.00527115 0.0025 0.546483 0.429183 1.96339 0.00914941 49 4 1 -1.79541e-09 
1.48313 -0.673415 0.00577134 0.0025 0.546471 0.429168 1.96336 0.00914961 50 4 1 -1.68596e-09 
1.4877 -0.67344 0.00635958 0.0025 0.546458 0.429152 1.96334 0.00914984 51 4 1 -9.92106e-10 
1.49228 -0.673469 0.00703073 0.0025 0.546443 0.429135 1.96331 0.00915009 52 4 1 -1.95331e-09 
1.49685 -0.6735 0.00776607 0.0025 0.546426 0.429115 1.96328 0.00915038 53 4 1 -2.91546e-09 
-0.498573 -0.673535 0.0085647 0.0025 0.546407 0.429094 1.96325 0.00915069 54 4 1 -2.30495e-09 
-0.493997 -0.673575 0.00946763 0.0025 0.546386 0.42907 1.96322 0.00915104 55 4 1 -2.03811e-09 
-0.489422 -0.673619 0.01054 0.0025 0.546363 0.429043 1.96318 0.00915143 56 4 1 -3.53919e-09 
-0.484846 -0.673669 0.0118125 0.0025 0.546336 0.429013 1.96314 0.00915187 57 4 1 -4.44765e-09 
-0.48027 -0.673724 0.0132402 0.0025 0.546307 0.42898 1.96309 0.00915236 58 4 1 -3.64186e-09 
-0.475693 -0.673787 0.014752 0.0025 0.546274 0.428943 1.96304 0.00915292 59 4 1 -4.21137e-09 
-0.471117 -0.673857 0.0163681 0.0025 0.546237 0.428902 1.96298 0.00915354 60 4 1 -5.27422e-09 
-0.46654 -0.673936 0.0182372 0.0025 0.546196 0.428856 1.96292 0.00915423 61 4 1 -5.7027e-09 
-0.461963 -0.674024 0.0204833 0.0025 0.54615 0.428804 1.96285 0.00915499 62 4 1 -5.78937e-09 
-0.457385 -0.674121 0.0230056 0.0025 0.546099 0.428747 1.96278 0.00915585 63 4 1 -6.49784e-09 
-0.452807 -0.674227 0.0254948 0.0025 0.546042 0.428684 1.96269 0.00915681 64 4 1 -6.5036e-09 
-0.448228 -0.674343 0.0276705 0.0025 0.54598 0.428615 1.9626 0.00915785 65 4 1 -4.9512e-09 
-0.443649 -0.674468 0.0294522 0.0025 0.545913 0.428542 1.9625 0.00915896 66 4 1 -3.34811e-09 
-0.439069 -0.674603 0.0309014 0.0025 0.545844 0.428464 1.9624 0.00916013 67 4 1 -1.98181e-09 
-0.434489 -0.674744 0.0320356 0.0025 0.545772 0.428385 1.96229 0.00916134 68 4 1 -2.03424e-10 
-0.429908 -0.674886 0.0325809 0.0025 0.5457 0.428306 1.96218 0.00916254 69 4 1 2.80583e-09 
-0.425326 -0.675023 0.0318629 0.0025 0.54563 0.428228 1.96208 0.00916372 70 4 1 6.77484e-09 
-0.420744 -0.67515 0.0294525 0.0025 0.545566 0.428157 1.96199 0.0091648 71 4 1 1.13766e-08 
-0.416161 -0.675259 0.0254365 0.0025 0.54551 0.428096 1.9619 0.00916573 72 4 1 1.70835e-08 
-0.411578 -0.675344 0.0188159 0.0025 0.545469 0.428051 1.96184 0.00916642 73 4 1 2.55167e-08 
-0.406995 -0.675396 0.00765768 0.0025 0.545449 0.428028 1.96181 0.00916676 74 4 1 2.32575e-08 
-0.402412 -0.675411 0.00426716 0.0025 0.545448 0.428027 1.96181 0.00916677 75 5 1 3.61375e-08 
-0.397828 -0.675401 -0.00985227 0.0025 0.54548 0.428066 1.96185 0.00916625 76 4 1 1.55082e-07 
-0.393245 -0.675168 -0.10715 0.0025 0.545639 0.428245 1.96207 0.00916358 77 4 1 3.0116e-07 
-0.388665 -0.674384 -0.234222 0.0025 0.546039 0.428686 1.96265 0.00915685 78 4 1 3.40784e-07 
-0.384088 -0.673148 -0.331014 0.0025 0.546705 0.429422 1.9636 0.0091457 79 4 1 4.58794e-07 
-0.379519 -0.671328 -0.512585 0.0025 0.547711 0.430538 1.96504 0.0091289 80 4 1 7.72532e-07 
-0.37496 -0.668434 -0.817354 0.0025 0.549255 0.432243 1.96726 0.00910325 81 4 1 1.06066e-06 
-0.370416 -0.664182 -1.14615 0.0025 0.551469 0.434683 1.97042 0.00906669 82 4 1 1.11984e-06 
-0.365893 -0.658721 -1.38234 0.0025 0.554292 0.437793 1.97445 0.00902052 83 4 1 1.03291e-06 
-0.361395 -0.652488 -1.53784 0.0025 0.557557 0.441403 1.9791 0.00896769 84 4 1 9.77911e-07 
-0.356925 -0.645714 -1.65665 0.0025 0.561144 0.445381 1.98418 0.00891037 85 4 1 1.02002e-06 
-0.352485 -0.638483 -1.78452 0.0025 0.565013 0.449688 1.98964 0.00884935 86 4 1 1.14657e-06 
-0.348076 -0.63071 -1.93751 0.0025 0.569185 0.454344 1.9955 0.00878449 87 4 1 1.27188e-06 
-0.3437 -0.622374 -2.08919 0.0025 0.573674 0.459367 2.00178 0.00871575 88 4 1 1.33336e-06 
-0.33936 -0.613559 -2.21667 0.0025 0.578449 0.464726 2.00843 0.0086438 89 4 1 1.33664e-06 
-0.335056 -0.604369 -2.31414 0.0025 0.583451 0.470357 2.01536 0.0085697 90 4 1 1.26626e-06 
-0.33079 -0.595016 -2.35626 0.0025 0.588589 0.476162 2.02244 0.00849489 91 4 1 1.16538e-06 
-0.326561 -0.585639 -2.37023 0.0025 0.593777 0.482045 2.02955 0.00842067 92 4 1 1.06038e-06 
-0.322369 -0.576369 -2.34841 0.0025 0.598948 0.487929 2.0366 0.00834797 93 4 1 9.8488e-07 
-0.318213 -0.567276 -2.33129 0.0025 0.604065 0.493776 2.04354 0.00827725 94 4 1 9.4443e-07 
-0.314092 -0.558333 -2.31183 0.0025 0.609126 0.499576 2.05037 0.00820848 95 4 1 8.90418e-07 
-0.310004 -0.549561 -2.28256 0.0025 0.614118 0.505316 2.05708 0.00814175 96 4 1 8.40619e-07 
-0.30595 -0.541015 -2.25246 0.0025 0.619034 0.510988 2.06365 0.0080771 97 4 1 8.17448e-07 
-0.301927 -0.532627 -2.23453 0.0025 0.623882 0.5166 2.0701 0.00801433 98 4 1 7.96856e-07 
-0.297935 -0.524391 -2.21467 0.0025 0.628673 0.522162 2.07644 0.00795326 99 4 1 7.6006e-07 
-0.293974 -0.516308 -2.18821 0.0025 0.633403 0.52767 2.08267 0.00789387 100 4 1 7.51057e-07 
-0.290041 -0.508357 -2.18161 0.0025 0.638083 0.533138 2.08881 0.00783597 101 4 1 7.46435e-07 
-0.286138 -0.500506 -2.16937 0.0025 0.64273 0.538581 2.09489 0.00777932 102 4 1 7.37369e-07 
-0.282262 -0.49275 -2.1661 0.0025 0.64735 0.54401 2.1009 0.00772379 103 4 1 7.64916e-07 
-0.278414 -0.485044 -2.18583 0.0025 0.651973 0.549458 2.10688 0.00766903 104 4 1 7.88605e-07 
-0.274593 -0.477309 -2.20469 0.0025 0.656621 0.554949 2.11288 0.00761475 105 4 1 7.84958e-07 
-0.270799 -0.469613 -2.2158 0.0025 0.661292 0.560486 2.11888 0.00756095 106 4 1 8.37053e-07 
-0.267032 -0.461867 -2.27432 0.0025 0.666022 0.566108 2.12493 0.00750726 107 4 1 8.89583e-07 
-0.263291 -0.453983 -2.3231 0.0025 0.67084 0.571848 2.13106 0.00745334 108 4 1 8.66554e-07 
-0.259578 -0.446051 -2.34438 0.0025 0.67572 0.57768 2.13725 0.00739951 109 4 1 8.73955e-07 
-0.255892 -0.438095 -2.38957 0.0025 0.680657 0.583598 2.14348 0.00734584 110 4 1 8.87074e-07 
-0.252232 -0.430065 -2.41977 0.0025 0.685655 0.589606 2.14976 0.00729229 111 4 1 8.8393e-07 
-0.248599 -0.421991 -2.45577 0.0025 0.690705 0.595693 2.15608 0.00723898 112 4 1 8.60392e-07 
-0.244993 -0.413919 -2.46308 0.0025 0.695786 0.601836 2.16241 0.00718612 113 4 1 8.40989e-07 
-0.241413 -0.405886 -2.48372 0.0025 0.700884 0.608018 2.16873 0.00713385 114 4 1 8.41123e-07 
-0.237859 -0.397858 -2.49981 0.0025 0.706 0.61424 2.17505 0.00708215 115 4 1 7.97713e-07 
-0.234331 -0.389893 -2.48689 0.0025 0.711109 0.620471 2.18134 0.00703127 116 4 1 7.8354e-07 
-0.230828 -0.382014 -2.49856 0.0025 0.716207 0.626709 2.18758 0.00698122 117 4 1 8.02428e-07 
-0.22735 -0.374123 -2.51704 0.0025 0.721315 0.632974 2.1938 0.00693178 118 4 1 7.74682e-07 
-0.223896 -0.366294 -2.51007 0.0025 0.72642 0.639253 2.2 0.00688307 119 4 1 7.41979e-07 
-0.220466 -0.358558 -2.50486 0.0025 0.731504 0.645526 2.20615 0.00683523 120 4 1 7.52107e-07 
-0.217061 -0.350856 -2.52117 0.0025 0.736584 0.651811 2.21226 0.0067881 121 4 1 7.47883e-07 
-0.213678 -0.343207 -2.52314 0.0025 0.741663 0.658112 2.21835 0.0067416 122 4 1 7.23546e-07 
-0.210319 -0.335603 -2.52291 0.0025 0.746731 0.664415 2.2244 0.00669585 123 4 1 6.92901e-07 
-0.206982 -0.328081 -2.50553 0.0025 0.751775 0.670706 2.2304 0.00665093 124 4 1 6.97868e-07 
-0.203668 -0.320647 -2.52155 0.0025 0.756806 0.677 2.23636 0.00660672 125 4 1 7.38834e-07 
-0.200376 -0.31318 -2.55658 0.0025 0.761861 0.683338 2.24232 0.00656288 126 4 1 6.89078e-07 
-0.197105 -0.305759 -2.52725 0.0025 0.766909 0.689683 2.24825 0.00651968 127 4 1 6.37969e-07 
-0.193856 -0.298467 -2.51556 0.0025 0.771916 0.695997 2.25411 0.00647739 128 4 1 6.68816e-07 
-0.190628 -0.291225 -2.53516 0.0025 0.776918 0.702321 2.25994 0.00643569 129 4 1 7.05328e-07 
-0.18742 -0.28394 -2.57151 0.0025 0.781946 0.708691 2.26578 0.0063943 130 4 1 6.42091e-07 
-0.184233 -0.276725 -2.52895 0.0025 0.786958 0.715056 2.27158 0.00635358 131 4 1 5.92e-07 
-0.181066 -0.269653 -2.51872 0.0025 0.791922 0.721381 2.2773 0.00631375 132 4 1 6.40786e-07 
-0.177919 -0.2626 -2.54572 0.0025 0.796887 0.727721 2.283 0.00627442 133 4 1 6.66535e-07 
-0.174792 -0.255528 -2.5709 0.0025 0.801878 0.734109 2.2887 0.00623536 134 4 1 6.35603e-07 
-0.171684 -0.248478 -2.5658 0.0025 0.806873 0.740517 2.2944 0.00619676 135 4 1 5.78559e-07 
-0.168595 -0.241539 -2.53596 0.0025 0.811832 0.746896 2.30003 0.00615891 136 4 1 5.73904e-07 
-0.165525 -0.234688 -2.53861 0.0025 0.816761 0.753254 2.3056 0.00612174 137 4 1 6.21278e-07 
-0.162473 -0.22782 -2.57412 0.0025 0.821705 0.759646 2.31117 0.00608491 138 4 1 6.2101e-07 
-0.15944 -0.220959 -2.5817 0.0025 0.826669 0.766076 2.31675 0.00604837 139 4 1 5.64688e-07 
-0.156425 -0.214153 -2.55741 0.0025 0.831609 0.772492 2.32228 0.00601244 140 4 1 5.21762e-07 
-0.153428 -0.207472 -2.52769 0.0025 0.836501 0.778862 2.32773 0.00597728 141 4 1 5.54956e-07 
-0.150448 -0.200855 -2.55342 0.0025 0.841381 0.785233 2.33315 0.00594261 142 4 1 6.18375e-07 
-0.147485 -0.194171 -2.60475 0.0025 0.846305 0.791674 2.3386 0.00590804 143 4 1 5.98821e-07 
-0.144539 -0.187484 -2.60804 0.0025 0.851257 0.798163 2.34407 0.00587367 144 4 1 5.03625e-07 
-0.141611 -0.180887 -2.55231 0.0025 0.856161 0.804606 2.34946 0.00584002 145 4 1 4.57062e-07 
-0.138699 -0.174477 -2.51485 0.0025 0.860991 0.810971 2.35475 0.00580726 146 4 1 5.53415e-07 
-0.135804 -0.168033 -2.58868 0.0025 0.865836 0.81737 2.36004 0.00577477 147 4 1 6.2363e-07 
-0.132925 -0.161501 -2.64072 0.0025 0.870757 0.823878 2.3654 0.00574213 148 4 1 5.30421e-07 
-0.130062 -0.154965 -2.59883 0.0025 0.875673 0.830392 2.37073 0.0057099 149 4 1 3.96729e-07 
-0.127215 -0.148674 -2.49966 0.0025 0.88048 0.836782 2.37593 0.00567872 150 4 1 4.33887e-07 
-0.124383 -0.142538 -2.52026 0.0025 0.885225 0.843109 2.38104 0.00564828 151 4 1 5.90656e-07 
-0.121566 -0.136255 -2.62677 0.0025 0.89005 0.849551 2.38622 0.00561766 152 4 1 6.34002e-07 
-0.118765 -0.129808 -2.69292 0.0025 0.894983 0.856144 2.3915 0.0055867 153 4 1 4.55997e-07 
-0.11598 -0.123457 -2.57502 0.0025 0.89987 0.86269 2.39672 0.00555636 154 4 1 3.08944e-07 
-0.113209 -0.117432 -2.47214 0.0025 0.904596 0.869044 2.40174 0.00552733 155 4 1 4.34879e-07 
-0.110452 -0.111492 -2.53844 0.0025 0.909287 0.875367 2.40671 0.00549881 156 4 1 6.18237e-07 
-0.10771 -0.105348 -2.67514 0.0025 0.914108 0.881871 2.41181 0.00546982 157 4 1 5.9906e-07 
-0.104982 -0.099009 -2.70385 0.0025 0.91903 0.888516 2.417 0.00544052 158 4 1 3.46448e-07 
-0.102269 -0.0929281 -2.52037 0.0025 0.923834 0.895021 2.42205 0.00541223 159 4 1 2.49584e-07 
-0.0995701 -0.087182 -2.44521 0.0025 0.928449 0.901294 2.42687 0.00538532 160 4 1 4.22606e-07 
-0.096884 -0.0814827 -2.51702 0.0025 0.933052 0.907565 2.43168 0.00535876 161 4 1 6.32359e-07 
-0.0942113 -0.075492 -2.71002 0.0025 0.937828 0.914074 2.43665 0.00533147 162 4 1 5.72674e-07 
-0.0915525 -0.0693369 -2.68781 0.0025 0.942713 0.920737 2.44173 0.00530384 163 4 1 3.21243e-07 
-0.0889074 -0.0634168 -2.54593 0.0025 0.947478 0.927253 2.44665 0.00527717 164 4 1 2.22217e-07 
-0.0862753 -0.0578427 -2.4272 0.0025 0.952051 0.933532 2.45136 0.00525182 165 4 1 4.22786e-07 
-0.0836556 -0.0522736 -2.57303 0.0025 0.95662 0.939813 2.45606 0.00522674 166 4 1 4.50791e-07 
-0.0810486 -0.0465511 -2.50814 0.0025 0.961246 0.94618 2.46081 0.00520158 167 4 1 4.71762e-07 
-0.078454 -0.0409698 -2.66363 0.0025 0.96593 0.952653 2.46559 0.00517636 168 4 1 7.01743e-07 
-0.0758722 -0.0347895 -2.90006 0.0025 0.970819 0.959385 2.4706 0.00515029 169 4 1 -1.10126e-07 
-0.0733037 -0.029254 -2.01767 0.0025 0.975267 0.965522 2.47511 0.0051268 170 4 1 -3.79477e-07 
-0.0707454 -0.0252683 -1.87283 0.0025 0.979079 0.970873 2.47893 0.00510684 171 4 1 1.3471e-06 
-0.0681968 -0.0196924 -3.38709 0.0025 0.983738 0.977366 2.48368 0.00508265 172 4 1 1.27797e-06 
-0.0656627 -0.0123079 -3.1696 0.0025 0.989158 0.984813 2.4892 0.0050548 173 4 1 -1.30148e-06 
-0.063142 -0.00775818 -1.08015 0.0025 0.993098 0.990296 2.49311 0.00503475 174 4 1 -9.05217e-07 
-0.0606279 -0.00547506 -1.38576 0.0025 0.995915 0.994356 2.49586 0.00502051 175 4 1 2.23891e-06 
-0.0581214 5.59942e-05 -3.89114 0.0025 1.00048 1.00076 2.50049 0.00499761 176 4 1 1.8553e-06 
-0.0556302 0.00835582 -3.60869 0.0025 1.00637 1.00886 2.50647 0.00496835 177 4 1 -2.08513e-06 
-0.053153 0.0126909 -0.600233 0.0025 1.01001 1.01393 2.51004 0.00495046 178 4 1 -2.31223e-06 
-0.0506798 0.0126422 0.2838 0.0025 1.01114 1.01568 2.51105 0.00494494 179 4 1 1.77653e-06 
-0.0482081 0.0155016 -3.05369 0.0025 1.01374 1.01939 2.51368 0.00493222 180 4 1 1.96227e-06 
-0.0457475 0.0221113 -2.74348 0.0025 1.01809 1.02536 2.51809 0.00491115 181 4 1 -1.98891e-06 
-0.0432969 0.0246789 -0.171271 0.0025 1.02041 1.02859 2.52035 0.0049 182 3 1 -2.07184e-06 
-0.0408475 0.0242253 0.452991 0.0025 1.02027 1.02847 2.52018 0.00490066 183 4 1 -5.73219e-07 
-0.0383963 0.0230864 0.608242 0.0025 1.01933 1.02717 2.51924 0.00490516 184 4 1 -1.60973e-07 
-0.0359424 0.0217386 0.670896 0.0025 1.01817 1.02554 2.51809 0.00491076 185 4 1 -6.88053e-08 
-0.0334855 0.0202702 0.720925 0.0025 1.01689 1.02373 2.51683 0.00491693 186 4 1 -5.76375e-08 
-0.0310254 0.0186784 0.779804 0.0025 1.01551 1.02179 2.51546 0.00492362 187 4 1 -4.69302e-08 
-0.0285619 0.0169601 0.837008 0.0025 1.01404 1.01971 2.51399 0.00493078 188 4 1 -1.95767e-08 
-0.0260947 0.0151381 0.877873 0.0025 1.01249 1.01754 2.51246 0.0049383 189 4 1 2.21829e-08 
-0.0236236 0.0132595 0.890831 0.0025 1.01093 1.01534 2.5109 0.00494596 190 4 1 6.92726e-08 
-0.0211487 0.0113839 0.870838 0.0025 1.00939 1.01318 2.50937 0.00495349 191 4 1 1.12526e-07 
-0.0186701 0.00957024 0.819094 0.0025 1.00794 1.01114 2.50792 0.00496062 192 4 1 1.4592e-07 
-0.0161881 0.00786612 0.741 0.0025 1.00661 1.00928 2.5066 0.00496715 193 4 1 1.67341e-07 
-0.0137029 0.00630212 0.643715 0.0025 1.00545 1.00765 2.50544 0.0049729 194 4 1 1.77773e-07 
-0.0112152 0.00489032 0.534186 0.0025 1.00447 1.00627 2.50446 0.00497776 195 4 1 1.79923e-07 
-0.00872518 0.00362581 0.418004 0.0025 1.00368 1.00516 2.50367 0.00498167 196 4 1 1.77001e-07 
-0.00623349 0.00248964 0.29899 0.0025 1.00309 1.00434 2.50308 0.0049846 197 4 1 1.71936e-07 
-0.00374058 0.0014523 0.179285 0.0025 1.0027 1.00379 2.50269 0.00498655 198 4 1 1.67029e-07 
-0.00124694 0.000477046 0.0597154 0.0025 1.0025 1.00351 2.5025 0.00498753 199 4 1 1.63772e-07 
0.00124694 -0.000477046 -0.0597154 0.0025 1.0025 1.00351 2.5025 0.00498753 200 4 1 1.63772e-07 
0.00374058 -0.0014523 -0.179285 0.0025 1.0027 1.00379 2.50269 0.00498655 201 4 1 1.67029e-07 
0.00623349 -0.00248964 -0.29899 0.0025 1.00309 1.00434 2.50308 0.0049846 202 4 1 1.71936e-07 
0.00872518 -0.00362581 -0.418004 0.0025 1.00368 1.00516 2.50367 0.00498167 203 4 1 1.77001e-07 
0.0112152 -0.00489032 -0.534186 0.0025 1.00447 1.00627 2.50446 0.00497776 204 4 1 1.79923e-07 
0.0137029 -0.00630212 -0.643715 0.0025 1.00545 1.00765 2.50544 0.0049729 205 4 1 1.77773e-07 
0.0161881 -0.00786612 -0.741 0.0025 1.00661 1.00928 2.5066 0.00496715 206 4 1 1.67341e-07 
0.0186701 -0.00957024 -0.819094 0.0025 1.00794 1.01114 2.50792 0.00496062 207 4 1 1.4592e-07 
0.0211487 -0.0113839 -0.870838 0.0025 1.00939 1.01318 2.50937 0.00495349 208 4 1 1.12526e-07 
0.0236236 -0.0132595 -0.890831 0.0025 1.01093 1.01534 2.5109 0.00494596 209 4 1 6.92726e-08 
0.0260947 -0.0151381 -0.877873 0.0025 1.01249 1.01754 2.51246 0.0049383 210 4 1 2.21829e-08 
0.0285619 -0.0169601 -0.837008 0.0025 1.01404 1.01971 2.51399 0.00493078 211 4 1 -1.95767e-08 
