# Time [s]: 0.365357
# Columns: pos [m], vel [m/s], acc [m/s^2], mass [kg], dens [kg/m^3], pres [Pa], ene [J/kg], sml [m], id, neighbor, alpha, gradh, ...additional?
1.25631 -0.673082 0.000167075 0.0025 0.511055 0.432732 2.15251 0.00978368 0 4 1 -0.000134225 
1.26109 -0.673083 0.000174493 0.0025 0.536913 0.426195 1.95005 0.0093125 1 4 1 0.000179253 
1.26562 -0.673084 0.000182219 0.0025 0.548243 0.430865 1.96851 0.00912005 2 3 1 -1.90585e-05 
1.27021 -0.673084 0.00019063 0.0025 0.545978 0.4292 1.96465 0.00915788 3 5 1 3.48569e-06 
1.27478 -0.673085 0.000199816 0.0025 0.546376 0.429355 1.96459 0.00915121 4 4 1 -1.38699e-07 
1.27936 -0.673086 0.000210162 0.0025 0.546386 0.429325 1.96436 0.00915103 5 4 1 1.43712e-07 
1.28393 -0.673087 0.000221859 0.0025 0.546409 0.429324 1.9643 0.00915065 6 4 1 -3.53139e-09 
1.28851 -0.673089 0.000234629 0.0025 0.546422 0.429321 1.96423 0.00915043 7 4 1 8.2131e-09 
1.29308 -0.67309 0.000247857 0.0025 0.546436 0.42932 1.96418 0.0091502 8 4 1 4.7421e-09 
1.29766 -0.673091 0.000261201 0.0025 0.546449 0.429319 1.96413 0.00914999 9 4 1 5.45411e-09 
1.30223 -0.673092 0.000275201 0.0025 0.54646 0.429319 1.96409 0.00914981 10 4 1 -2.26326e-09 
1.30681 -0.673094 0.000291279 0.0025 0.54647 0.429318 1.96405 0.00914963 11 4 1 4.69968e-09 
1.31138 -0.673096 0.000310894 0.0025 0.54648 0.429317 1.96401 0.00914946 12 4 1 2.81381e-09 
1.31596 -0.673097 0.000334322 0.0025 0.546489 0.429316 1.96397 0.00914932 13 4 1 3.52681e-09 
1.32053 -0.673099 0.00036004 0.0025 0.546496 0.429315 1.96394 0.00914919 14 4 1 2.07189e-09 
1.32511 -0.673101 0.000385411 0.0025 0.546503 0.429314 1.96392 0.00914908 15 4 1 -1.6254e-09 
1.32968 -0.673103 0.000408417 0.0025 0.54651 0.429313 1.96389 0.00914897 16 4 1 4.86804e-09 
1.33426 -0.673106 0.000429287 0.0025 0.546515 0.429312 1.96386 0.00914887 17 4 1 1.45572e-09 
1.33883 -0.673108 0.000450779 0.0025 0.54652 0.429311 1.96384 0.00914879 18 4 1 -1.21793e-09 
1.34341 -0.673111 0.000476756 0.0025 0.546525 0.42931 1.96381 0.00914871 19 4 1 2.66885e-09 
1.34798 -0.673113 0.000509945 0.0025 0.546529 0.429308 1.96379 0.00914864 20 4 1 1.1259e-09 
1.35255 -0.673116 0.000550342 0.0025 0.546533 0.429307 1.96377 0.00914858 21 4 1 1.1356e-09 
1.35713 -0.67312 0.000595269 0.0025 0.546536 0.429306 1.96376 0.00914852 22 4 1 9.95162e-10 
1.3617 -0.673123 0.000640964 0.0025 0.546539 0.429304 1.96374 0.00914848 23 4 1 -2.31354e-10 
1.36628 -0.673126 0.000684629 0.0025 0.546541 0.429302 1.96372 0.00914844 24 4 1 1.4281e-09 
1.37085 -0.67313 0.000725684 0.0025 0.546543 0.4293 1.96371 0.0091484 25 4 1 6.99146e-10 
1.37542 -0.673134 0.000765419 0.0025 0.546545 0.429298 1.96369 0.00914838 26 4 1 -3.88161e-10 
1.38 -0.673139 0.000804913 0.0025 0.546547 0.429296 1.96368 0.00914835 27 4 1 1.20496e-09 
1.38457 -0.673144 0.000841884 0.0025 0.546548 0.429294 1.96366 0.00914833 28 4 1 8.62828e-10 
1.38915 -0.673149 0.000868162 0.0025 0.546548 0.429292 1.96365 0.00914832 29 4 1 -7.37084e-10 
1.39372 -0.673155 0.000870401 0.0025 0.546549 0.42929 1.96364 0.00914831 30 4 1 5.95184e-10 
1.3983 -0.673162 0.000836203 0.0025 0.546549 0.429287 1.96362 0.0091483 31 4 1 2.1374e-09 
1.40287 -0.673169 0.000764668 0.0025 0.54655 0.429285 1.96361 0.0091483 32 4 1 -6.13496e-10 
1.40744 -0.673178 0.000675735 0.0025 0.54655 0.429283 1.9636 0.0091483 33 4 1 -5.65872e-10 
1.41202 -0.673188 0.000610356 0.0025 0.54655 0.429281 1.96359 0.00914829 34 4 1 2.29791e-09 
1.41659 -0.6732 0.000617702 0.0025 0.546551 0.429279 1.96358 0.00914828 35 4 1 -2.22818e-10 
1.42117 -0.673212 0.000734845 0.0025 0.546551 0.429277 1.96357 0.00914828 36 3 1 -1.16889e-09 
1.42574 -0.673225 0.00097118 0.0025 0.546551 0.429275 1.96356 0.00914828 37 4 1 8.4161e-10 
1.43031 -0.673238 0.00130701 0.0025 0.54655 0.429272 1.96355 0.0091483 38 4 1 -7.37324e-10 
1.43489 -0.673251 0.00170513 0.0025 0.546548 0.429268 1.96354 0.00914833 39 4 1 -1.72096e-09 
1.43946 -0.673263 0.00212588 0.0025 0.546545 0.429263 1.96353 0.00914838 40 4 1 -3.40218e-10 
1.44404 -0.673276 0.00253774 0.0025 0.546541 0.429257 1.96352 0.00914844 41 4 1 -5.96534e-10 
1.44861 -0.673289 0.00292259 0.0025 0.546536 0.42925 1.9635 0.00914852 42 4 1 -1.60487e-09 
1.45319 -0.673302 0.00327838 0.0025 0.546531 0.429242 1.96349 0.00914862 43 4 1 -9.22082e-10 
1.45776 -0.673316 0.0036185 0.0025 0.546524 0.429234 1.96347 0.00914873 44 4 1 8.13361e-11 
1.46233 -0.673331 0.00396486 0.0025 0.546516 0.429224 1.96345 0.00914886 45 4 1 -1.27824e-09 
1.46691 -0.673348 0.00433576 0.0025 0.546507 0.429213 1.96344 0.00914901 46 4 1 -1.69683e-09 
1.47148 -0.673366 0.0047376 0.0025 0.546498 0.429201 1.96342 0.00914917 47 4 1 -4.77004e-10 
1.47606 -0.673386 0.00516948 0.0025 0.546487 0.429188 1.9634 0.00914935 48 4 1 -8.95448e-10 
1.48063 -0.673408 0.00563827 0.0025 0.546475 0.429174 1.96337 0.00914955 49 4 1 -1.91392e-09 
1.48521 -0.673433 0.00616823 0.0025 0.546462 0.429158 1.96335 0.00914977 50 4 1 -1.79445e-09 
1.48978 -0.673461 0.00679124 0.0025 0.546447 0.429141 1.96332 0.00915001 51 4 1 -1.12368e-09 
1.49436 -0.673491 0.00752351 0.0025 0.546431 0.429122 1.9633 0.00915029 52 4 1 -2.14967e-09 
1.49893 -0.673525 0.00835307 0.0025 0.546413 0.429101 1.96327 0.00915059 53 4 1 -3.18302e-09 
-0.496492 -0.673563 0.00925807 0.0025 0.546393 0.429078 1.96323 0.00915093 54 4 1 -2.59551e-09 
-0.491916 -0.673605 0.0102463 0.0025 0.54637 0.429052 1.96319 0.00915131 55 4 1 -2.28906e-09 
-0.48734 -0.673653 0.0113764 0.0025 0.546345 0.429023 1.96315 0.00915173 56 4 1 -3.7517e-09 
-0.482764 -0.673707 0.0127234 0.0025 0.546316 0.428991 1.96311 0.00915221 57 4 1 -4.71714e-09 
-0.478188 -0.673767 0.0143022 0.0025 0.546284 0.428955 1.96306 0.00915274 58 4 1 -4.06367e-09 
-0.473612 -0.673834 0.0160319 0.0025 0.546249 0.428915 1.963 0.00915334 59 4 1 -4.72007e-09 
-0.469035 -0.67391 0.0178207 0.0025 0.546208 0.42887 1.96294 0.00915401 60 4 1 -5.62651e-09 
-0.464458 -0.673995 0.0197129 0.0025 0.546164 0.42882 1.96288 0.00915476 61 4 1 -5.71803e-09 
-0.45988 -0.67409 0.0218867 0.0025 0.546115 0.428765 1.9628 0.00915559 62 4 1 -5.59586e-09 
-0.455302 -0.674195 0.0244173 0.0025 0.54606 0.428705 1.96272 0.0091565 63 4 1 -6.40151e-09 
-0.450724 -0.674309 0.0270656 0.0025 0.546 0.428638 1.96263 0.00915751 64 4 1 -6.56733e-09 
-0.446145 -0.674431 0.029395 0.0025 0.545934 0.428565 1.96253 0.00915861 65 4 1 -4.81594e-09 
-0.441565 -0.674562 0.0310849 0.0025 0.545865 0.428488 1.96243 0.00915978 66 4 1 -2.50755e-09 
-0.436985 -0.6747 0.0320566 0.0025 0.545792 0.428408 1.96232 0.009161 67 4 1 -1.41942e-10 
-0.432404 -0.674843 0.0323421 0.0025 0.54572 0.428328 1.96221 0.00916222 68 4 1 2.50689e-09 
-0.427823 -0.674986 0.0319302 0.0025 0.545649 0.428249 1.96211 0.0091634 69 4 1 5.77915e-09 
-0.423241 -0.67512 0.0304076 0.0025 0.545583 0.428176 1.96201 0.00916452 70 4 1 9.70425e-09 
-0.418658 -0.675237 0.0268212 0.0025 0.545524 0.428112 1.96193 0.0091655 71 4 1 1.47893e-08 
-0.414075 -0.675332 0.0215201 0.0025 0.545478 0.428061 1.96186 0.00916627 72 4 1 2.15146e-08 
-0.409492 -0.675395 0.013641 0.0025 0.54545 0.428029 1.96181 0.00916675 73 4 1 2.33402e-08 
-0.404908 -0.67541 0.00349705 0.0025 0.54544 0.428019 1.9618 0.0091669 74 5 1 2.84686e-08 
-0.400325 -0.675423 -1.64855e-05 0.0025 0.545456 0.428039 1.96182 0.00916664 75 4 1 1.11408e-07 
-0.395742 -0.67529 -0.0701255 0.0025 0.545565 0.428164 1.96197 0.00916481 76 4 1 2.68668e-07 
-0.39116 -0.674684 -0.203359 0.0025 0.545891 0.428523 1.96244 0.00915934 77 4 1 3.28076e-07 
-0.386582 -0.673567 -0.294484 0.0025 0.546475 0.429167 1.96328 0.00914955 78 4 1 4.02824e-07 
-0.38201 -0.671964 -0.447074 0.0025 0.547363 0.430153 1.96455 0.00913471 79 4 1 6.89623e-07 
-0.377448 -0.669424 -0.729708 0.0025 0.548741 0.431677 1.96652 0.00911177 80 4 1 1.00562e-06 
-0.372899 -0.665528 -1.06288 0.0025 0.550775 0.433919 1.96943 0.00907812 81 4 1 1.13426e-06 
-0.368369 -0.660332 -1.33599 0.0025 0.553456 0.436871 1.97326 0.00903415 82 4 1 1.0657e-06 
-0.363864 -0.654256 -1.50311 0.0025 0.556627 0.440374 1.97778 0.00898267 83 4 1 9.90616e-07 
-0.359387 -0.647587 -1.6332 0.0025 0.560147 0.444274 1.98277 0.00892623 84 4 1 1.01676e-06 
-0.354938 -0.640444 -1.75791 0.0025 0.56396 0.448515 1.98816 0.00886587 85 4 1 1.1331e-06 
-0.350521 -0.632775 -1.91309 0.0025 0.56808 0.453109 1.99395 0.00880158 86 4 1 1.26882e-06 
-0.346136 -0.62452 -2.06918 0.0025 0.572524 0.458079 2.00018 0.00873326 87 4 1 1.34346e-06 
-0.341787 -0.615738 -2.20523 0.0025 0.57727 0.463402 2.00679 0.00866146 88 4 1 1.36403e-06 
-0.337475 -0.606553 -2.31438 0.0025 0.582264 0.469019 2.01372 0.00858718 89 4 1 1.30434e-06 
-0.3332 -0.597132 -2.36644 0.0025 0.587417 0.474836 2.02083 0.00851184 90 4 1 1.20821e-06 
-0.328963 -0.58768 -2.38948 0.0025 0.59264 0.480754 2.02799 0.00843683 91 4 1 1.10348e-06 
-0.324763 -0.578305 -2.37417 0.0025 0.597861 0.486691 2.03512 0.00836315 92 4 1 1.01255e-06 
-0.320599 -0.56911 -2.35252 0.0025 0.603032 0.492594 2.04214 0.00829143 93 4 1 9.68257e-07 
-0.316471 -0.560063 -2.33655 0.0025 0.608146 0.498452 2.04905 0.0082217 94 4 1 9.1739e-07 
-0.312378 -0.551193 -2.30757 0.0025 0.613194 0.504252 2.05584 0.00815402 95 4 1 8.52395e-07 
-0.308317 -0.542532 -2.26987 0.0025 0.618159 0.509978 2.06248 0.00808853 96 4 1 8.32942e-07 
-0.304289 -0.53405 -2.25644 0.0025 0.623054 0.51564 2.069 0.00802499 97 4 1 8.16243e-07 
-0.300292 -0.525723 -2.23393 0.0025 0.627891 0.521253 2.07541 0.00796316 98 4 1 7.77244e-07 
-0.296326 -0.517555 -2.21039 0.0025 0.632667 0.526812 2.0817 0.00790305 99 4 1 7.6336e-07 
-0.292389 -0.509535 -2.19822 0.0025 0.637391 0.532328 2.08791 0.00784448 100 4 1 7.56237e-07 
-0.288481 -0.501606 -2.18731 0.0025 0.642077 0.537815 2.09403 0.00778723 101 4 1 7.49887e-07 
-0.284602 -0.493787 -2.18241 0.0025 0.646735 0.543286 2.1001 0.00773114 102 4 1 7.69326e-07 
-0.28075 -0.486015 -2.19725 0.0025 0.65139 0.54877 2.10613 0.00767589 103 4 1 7.99944e-07 
-0.276926 -0.478229 -2.22162 0.0025 0.656069 0.554297 2.11217 0.00762115 104 4 1 7.96221e-07 
-0.273129 -0.470468 -2.22814 0.0025 0.660773 0.559869 2.11821 0.0075669 105 4 1 8.41211e-07 
-0.269359 -0.462669 -2.28472 0.0025 0.665529 0.565522 2.1243 0.00751282 106 4 1 9.0497e-07 
-0.265616 -0.454729 -2.34006 0.0025 0.670378 0.571297 2.13047 0.00745848 107 4 1 8.85988e-07 
-0.2619 -0.446743 -2.36255 0.0025 0.675294 0.57717 2.13671 0.00740418 108 4 1 8.80982e-07 
-0.258211 -0.438728 -2.40102 0.0025 0.680265 0.583127 2.14299 0.00735008 109 4 1 9.05126e-07 
-0.25455 -0.430625 -2.44235 0.0025 0.6853 0.589178 2.14932 0.00729608 110 4 1 9.04516e-07 
-0.250915 -0.422503 -2.47466 0.0025 0.690392 0.595315 2.15569 0.00724226 111 4 1 8.72378e-07 
-0.247307 -0.414357 -2.48347 0.0025 0.695514 0.601507 2.16207 0.00718893 112 4 1 8.53194e-07 
-0.243726 -0.406255 -2.50153 0.0025 0.700652 0.607737 2.16845 0.00713621 113 4 1 8.52554e-07 
-0.240171 -0.398152 -2.51834 0.0025 0.705807 0.614005 2.17482 0.00708409 114 4 1 8.15037e-07 
-0.236642 -0.390118 -2.50893 0.0025 0.710959 0.620288 2.18115 0.00703276 115 4 1 7.98939e-07 
-0.233138 -0.382171 -2.51935 0.0025 0.716101 0.626578 2.18745 0.00698226 116 4 1 8.19945e-07 
-0.22966 -0.374217 -2.54263 0.0025 0.721255 0.6329 2.19373 0.00693236 117 4 1 7.85286e-07 
-0.226206 -0.366327 -2.52798 0.0025 0.726404 0.639234 2.19998 0.00688322 118 4 1 7.50592e-07 
-0.222776 -0.35852 -2.52618 0.0025 0.731529 0.645557 2.20618 0.006835 119 4 1 7.68522e-07 
-0.219371 -0.350758 -2.54396 0.0025 0.736652 0.651895 2.21234 0.00678747 120 4 1 7.57271e-07 
-0.215989 -0.343034 -2.54189 0.0025 0.741774 0.658249 2.21848 0.0067406 121 4 1 7.34235e-07 
-0.21263 -0.335373 -2.54453 0.0025 0.746882 0.664604 2.22458 0.00669449 122 4 1 7.08096e-07 
-0.209294 -0.327801 -2.52807 0.0025 0.751969 0.670949 2.23063 0.00664921 123 4 1 7.10735e-07 
-0.205981 -0.320298 -2.54451 0.0025 0.757044 0.677299 2.23664 0.00660463 124 4 1 7.47686e-07 
-0.202689 -0.312758 -2.57678 0.0025 0.762142 0.683691 2.24265 0.00656046 125 4 1 6.95176e-07 
-0.19942 -0.305285 -2.5455 0.0025 0.767228 0.690086 2.24863 0.00651697 126 4 1 6.50344e-07 
-0.196172 -0.297952 -2.53758 0.0025 0.772276 0.696452 2.25453 0.00647437 127 4 1 6.88827e-07 
-0.192946 -0.290632 -2.56372 0.0025 0.777324 0.702835 2.26041 0.00643232 128 4 1 7.13314e-07 
-0.18974 -0.283289 -2.59089 0.0025 0.782397 0.709263 2.2663 0.00639062 129 4 1 6.38856e-07 
-0.186555 -0.276028 -2.54274 0.0025 0.787444 0.715674 2.27214 0.00634966 130 4 1 6.05264e-07 
-0.18339 -0.268914 -2.54258 0.0025 0.792445 0.722048 2.2779 0.00630959 131 4 1 6.63508e-07 
-0.180245 -0.261789 -2.57446 0.0025 0.797457 0.728451 2.28365 0.00626993 132 4 1 6.76049e-07 
-0.17712 -0.254652 -2.59408 0.0025 0.802495 0.7349 2.28941 0.00623057 133 4 1 6.32352e-07 
-0.174015 -0.247557 -2.57987 0.0025 0.807526 0.741356 2.29514 0.00619175 134 4 1 5.80249e-07 
-0.170928 -0.240579 -2.55165 0.0025 0.812516 0.747778 2.3008 0.00615373 135 4 1 5.96243e-07 
-0.167861 -0.23367 -2.56919 0.0025 0.817487 0.754193 2.30642 0.0061163 136 4 1 6.42262e-07 
-0.164812 -0.22674 -2.60338 0.0025 0.822484 0.760654 2.31205 0.00607915 137 4 1 6.17401e-07 
-0.161782 -0.219822 -2.5967 0.0025 0.827488 0.767139 2.31767 0.00604238 138 4 1 5.59196e-07 
-0.15877 -0.212986 -2.57088 0.0025 0.832458 0.773596 2.32322 0.00600631 139 4 1 5.34935e-07 
-0.155775 -0.20628 -2.54991 0.0025 0.837384 0.780014 2.32871 0.00597098 140 4 1 5.81926e-07 
-0.152799 -0.199592 -2.58925 0.0025 0.842313 0.786452 2.33418 0.00593603 141 4 1 6.32672e-07 
-0.149839 -0.192828 -2.63309 0.0025 0.847291 0.792965 2.33969 0.00590116 142 4 1 5.80173e-07 
-0.146897 -0.18609 -2.6118 0.0025 0.852274 0.799497 2.34519 0.00586666 143 4 1 4.8926e-07 
-0.143973 -0.17949 -2.55626 0.0025 0.857192 0.805964 2.35059 0.005833 144 4 1 4.91334e-07 
-0.141064 -0.173051 -2.55312 0.0025 0.862061 0.812384 2.35592 0.00580006 145 4 1 6.02932e-07 
-0.138173 -0.166521 -2.64196 0.0025 0.866978 0.81888 2.36129 0.00576716 146 4 1 6.14611e-07 
-0.135297 -0.159905 -2.6553 0.0025 0.871954 0.825463 2.3667 0.00573425 147 4 1 4.82732e-07 
-0.132438 -0.153372 -2.58515 0.0025 0.876878 0.831993 2.37204 0.00570204 148 4 1 3.93549e-07 
-0.129595 -0.147116 -2.50604 0.0025 0.88169 0.838394 2.37723 0.00567093 149 4 1 4.96795e-07 
-0.126767 -0.140897 -2.57885 0.0025 0.886488 0.844796 2.3824 0.00564023 150 4 1 6.47187e-07 
-0.123955 -0.134477 -2.69128 0.0025 0.891406 0.851362 2.38767 0.00560912 151 4 1 5.94479e-07 
-0.121158 -0.127975 -2.68779 0.0025 0.896387 0.858022 2.39301 0.00557795 152 4 1 3.78762e-07 
-0.118377 -0.121686 -2.53602 0.0025 0.901252 0.864546 2.39819 0.00554784 153 4 1 3.35575e-07 
-0.11561 -0.115696 -2.50008 0.0025 0.905978 0.870907 2.40321 0.0055189 154 4 1 5.34114e-07 
-0.112858 -0.109633 -2.62071 0.0025 0.910752 0.877344 2.40827 0.00548997 155 4 1 6.53709e-07 
-0.11012 -0.10332 -2.73305 0.0025 0.915676 0.883986 2.41347 0.00546045 156 4 1 5.13672e-07 
-0.107397 -0.0969759 -2.66441 0.0025 0.920616 0.890661 2.41867 0.00543115 157 4 1 2.67473e-07 
-0.104689 -0.0910181 -2.47378 0.0025 0.925367 0.897104 2.42365 0.00540326 158 4 1 3.08923e-07 
-0.101994 -0.0852849 -2.48646 0.0025 0.929986 0.903388 2.42848 0.00537642 159 4 1 5.46752e-07 
-0.0993126 -0.0794283 -2.62555 0.0025 0.934699 0.909809 2.43339 0.00534931 160 4 1 6.56482e-07 
-0.0966448 -0.0732585 -2.76311 0.0025 0.939593 0.916478 2.43849 0.00532145 161 4 1 4.62373e-07 
-0.0939911 -0.0671212 -2.63694 0.0025 0.944487 0.923158 2.44356 0.00529388 162 4 1 2.45154e-07 
-0.0913509 -0.0613265 -2.50056 0.0025 0.949191 0.929603 2.44842 0.00526765 163 4 1 3.00337e-07 
-0.0887234 -0.0557557 -2.48523 0.0025 0.953772 0.935899 2.45314 0.00524234 164 4 1 4.79942e-07 
-0.0861085 -0.0500611 -2.60117 0.0025 0.95841 0.942276 2.4579 0.00521697 165 4 1 4.64938e-07 
-0.0835064 -0.0443244 -2.57126 0.0025 0.963111 0.948757 2.46271 0.00519151 166 4 1 6.14534e-07 
-0.0809169 -0.038439 -2.86255 0.0025 0.967955 0.955442 2.46767 0.00516553 167 4 1 3.82436e-07 
-0.0783408 -0.032316 -2.54964 0.0025 0.972738 0.962022 2.47255 0.00514013 168 4 1 -4.65101e-07 
-0.0757768 -0.0276912 -1.7262 0.0025 0.9768 0.967675 2.47664 0.00511875 169 4 1 4.66888e-07 
-0.0732221 -0.0231827 -2.68731 0.0025 0.980953 0.973503 2.48084 0.00509708 170 4 1 1.77317e-06 
-0.0706797 -0.0161395 -3.66998 0.0025 0.986284 0.980858 2.48629 0.00506953 171 4 1 -2.00836e-07 
-0.0681525 -0.00984358 -1.95214 0.0025 0.991106 0.987498 2.49114 0.00504487 172 4 1 -1.63059e-06 
-0.0656348 -0.00717652 -0.827372 0.0025 0.994137 0.991817 2.4941 0.00502949 173 4 1 9.80941e-07 
-0.063123 -0.00341451 -2.93774 0.0025 0.997783 0.997006 2.49775 0.00501111 174 4 1 2.76882e-06 
-0.0606236 0.00450785 -4.32214 0.0025 1.00357 1.00501 2.50365 0.0049822 175 4 1 -5.24773e-07 
-0.0581407 0.0111836 -1.78796 0.0025 1.00855 1.01186 2.50863 0.00495763 176 4 1 -3.02826e-06 
-0.055666 0.0124176 0.516259 0.0025 1.01036 1.01451 2.51031 0.00494874 177 4 1 1.10649e-07 
-0.053192 0.0130896 -1.75732 0.0025 1.012 1.01696 2.51191 0.00494071 178 4 1 2.86215e-06 
-0.0507253 0.0192869 -3.65518 0.0025 1.01616 1.02271 2.51615 0.00492048 179 4 1 -5.02143e-07 
-0.0482715 0.0242526 -1.06336 0.0025 1.01981 1.02773 2.51978 0.00490288 180 4 1 -2.59896e-06 
-0.0458224 0.0246412 0.258434 0.0025 1.02058 1.02887 2.52049 0.0048992 181 3 1 -1.12051e-06 
-0.0433723 0.0237188 0.559132 0.0025 1.01987 1.02792 2.51978 0.00490258 182 4 1 -2.62832e-07 
-0.0409198 0.0224619 0.636018 0.0025 1.0188 1.02642 2.51872 0.00490773 183 4 1 -9.05471e-08 
-0.0384646 0.0210724 0.685995 0.0025 1.01759 1.02471 2.51751 0.00491358 184 4 1 -6.74143e-08 
-0.0360062 0.0195578 0.746945 0.0025 1.01626 1.02284 2.5162 0.00491998 185 4 1 -6.33004e-08 
-0.0335446 0.0179049 0.813921 0.0025 1.01483 1.02082 2.51478 0.00492695 186 4 1 -4.35825e-08 
-0.0310793 0.0161248 0.871131 0.0025 1.0133 1.01867 2.51326 0.00493439 187 4 1 -5.20352e-09 
-0.0286102 0.0142588 0.903709 0.0025 1.01171 1.01644 2.51168 0.00494211 188 4 1 4.30797e-08 
-0.0261372 0.0123684 0.903593 0.0025 1.01013 1.01421 2.5101 0.00494987 189 4 1 9.04565e-08 
-0.0236603 0.0105203 0.87008 0.0025 1.0086 1.01206 2.50858 0.00495739 190 4 1 1.28757e-07 
-0.0211798 0.00877367 0.808023 0.0025 1.00717 1.01006 2.50715 0.00496442 191 4 1 1.54152e-07 
-0.0186959 0.00717205 0.725068 0.0025 1.00588 1.00825 2.50587 0.00497079 192 4 1 1.66614e-07 
-0.016209 0.00574087 0.629271 0.0025 1.00475 1.00666 2.50474 0.00497637 193 4 1 1.68481e-07 
-0.0137195 0.00448803 0.527556 0.0025 1.00379 1.00532 2.50379 0.0049811 194 4 1 1.63036e-07 
-0.0112279 0.0034066 0.425005 0.0025 1.00301 1.00423 2.50301 0.00498498 195 4 1 1.53549e-07 
-0.00873453 0.00247814 0.324743 0.0025 1.0024 1.00337 2.5024 0.00498802 196 4 1 1.42795e-07 
-0.00623987 0.00167582 0.228138 0.0025 1.00195 1.00274 2.50195 0.00499025 197 4 1 1.32904e-07 
-0.00374428 0.000967124 0.135152 0.0025 1.00166 1.00233 2.50166 0.00499171 198 4 1 1.25387e-07 
-0.00124815 0.000315916 0.0447421 0.0025 1.00151 1.00213 2.50151 0.00499244 199 4 1 1.21174e-07 
0.00124815 -0.000315916 -0.0447421 0.0025 1.00151 1.00213 2.50151 0.00499244 200 4 1 1.21174e-07 
0.00374428 -0.000967124 -0.135152 0.0025 1.00166 1.00233 2.50166 0.00499171 201 4 1 1.25387e-07 
0.00623987 -0.00167582 -0.228138 0.0025 1.00195 1.00274 2.50195 0.00499025 202 4 1 1.32904e-07 
0.00873453 -0.00247814 -0.324743 0.0025 1.0024 1.00337 2.5024 0.00498802 203 4 1 1.42795e-07 
0.0112279 -0.0034066 -0.425005 0.0025 1.00301 1.00423 2.50301 0.00498498 204 4 1 1.53549e-07 
0.0137195 -0.00448803 -0.527556 0.0025 1.00379 1.00532 2.50379 0.0049811 205 4 1 1.63036e-07 
0.016209 -0.00574087 -0.629271 0.0025 1.00475 1.00666 2.50474 0.00497637 206 4 1 1.68481e-07 
0.0186959 -0.00717205 -0.725068 0.0025 1.00588 1.00825 2.50587 0.00497079 207 4 1 1.66614e-07 
0.0211798 -0.00877367 -0.808023 0.0025 1.00717 1.01006 2.50715 0.00496442 208 4 1 1.54152e-07 
0.0236603 -0.0105203 -0.87008 0.0025 1.0086 1.01206 2.50858 0.00495739 209 4 1 1.28757e-07 
0.0261372 -0.0123684 -0.903593 0.0025 1.01013 1.01421 2.5101 0.00494987 210 4 1 9.04565e-08 
0.0286102 -0.0142588 -0.903709 0.0025 1.01171 1.01644 2.51168 0.00494211 211 4 1 4.30797e-08 
