# Time [s]: 0.369683
# Columns: pos [m], vel [m/s], acc [m/s^2], mass [kg], dens [kg/m^3], pres [Pa], ene [J/kg], sml [m], id, neighbor, alpha, gradh, ...additional?
1.25339 -0.673081 0.000154403 0.0025 0.511056 0.432733 2.15251 0.00978367 0 4 1 -0.000134225 
1.25818 -0.673082 0.000161139 0.0025 0.536913 0.426195 1.95005 0.00931249 1 4 1 0.000179253 
1.26271 -0.673083 0.00016807 0.0025 0.548243 0.430865 1.96851 0.00912004 2 3 1 -1.90585e-05 
1.2673 -0.673084 0.000175787 0.0025 0.545978 0.429201 1.96465 0.00915788 3 5 1 3.48568e-06 
1.27187 -0.673084 0.000184494 0.0025 0.546376 0.429356 1.96459 0.0091512 4 4 1 -1.38698e-07 
1.27645 -0.673085 0.000194309 0.0025 0.546387 0.429326 1.96436 0.00915102 5 4 1 1.43713e-07 
1.28102 -0.673086 0.000204963 0.0025 0.54641 0.429325 1.9643 0.00915064 6 4 1 -3.52814e-09 
1.2856 -0.673088 0.00021596 0.0025 0.546423 0.429322 1.96423 0.00915042 7 4 1 8.21795e-09 
1.29017 -0.673089 0.000227085 0.0025 0.546437 0.429321 1.96418 0.00915018 8 4 1 4.74744e-09 
1.29475 -0.67309 0.000238885 0.0025 0.546449 0.42932 1.96413 0.00914998 9 4 1 5.458e-09 
1.29932 -0.673091 0.000252612 0.0025 0.54646 0.429319 1.96409 0.00914979 10 4 1 -2.26218e-09 
1.3039 -0.673093 0.000269477 0.0025 0.546471 0.429319 1.96405 0.00914961 11 4 1 4.69874e-09 
1.30847 -0.673094 0.000289641 0.0025 0.546481 0.429318 1.96401 0.00914945 12 4 1 2.81385e-09 
1.31305 -0.673096 0.000311753 0.0025 0.54649 0.429317 1.96398 0.0091493 13 4 1 3.53127e-09 
1.31762 -0.673098 0.000333575 0.0025 0.546497 0.429316 1.96395 0.00914918 14 4 1 2.08203e-09 
1.3222 -0.6731 0.000353448 0.0025 0.546504 0.429315 1.96392 0.00914906 15 4 1 -1.61203e-09 
1.32677 -0.673102 0.000371628 0.0025 0.546511 0.429314 1.96389 0.00914895 16 4 1 4.87959e-09 
1.33134 -0.673104 0.000390467 0.0025 0.546517 0.429313 1.96386 0.00914885 17 4 1 1.46101e-09 
1.33592 -0.673106 0.000413195 0.0025 0.546522 0.429312 1.96384 0.00914877 18 4 1 -1.21958e-09 
1.34049 -0.673109 0.000442022 0.0025 0.546527 0.429311 1.96382 0.00914869 19 4 1 2.66418e-09 
1.34507 -0.673111 0.000476812 0.0025 0.546531 0.42931 1.9638 0.00914861 20 4 1 1.12465e-09 
1.34964 -0.673114 0.000515149 0.0025 0.546535 0.429309 1.96378 0.00914855 21 4 1 1.1431e-09 
1.35422 -0.673117 0.000553701 0.0025 0.546538 0.429307 1.96376 0.0091485 22 4 1 1.01282e-09 
1.35879 -0.67312 0.00058997 0.0025 0.546541 0.429306 1.96374 0.00914845 23 4 1 -2.06328e-10 
1.36336 -0.673124 0.000623339 0.0025 0.546543 0.429304 1.96372 0.00914841 24 4 1 1.45592e-09 
1.36794 -0.673127 0.000654653 0.0025 0.546545 0.429303 1.96371 0.00914837 25 4 1 7.27305e-10 
1.37251 -0.673131 0.000684265 0.0025 0.546547 0.429301 1.96369 0.00914834 26 4 1 -3.56397e-10 
1.37709 -0.673136 0.000709258 0.0025 0.546549 0.429299 1.96368 0.00914831 27 4 1 1.25031e-09 
1.38166 -0.67314 0.000721531 0.0025 0.54655 0.429297 1.96367 0.00914829 28 4 1 9.34614e-10 
1.38624 -0.673146 0.00070903 0.0025 0.546551 0.429295 1.96365 0.00914827 29 4 1 -6.32605e-10 
1.39081 -0.673152 0.000661677 0.0025 0.546552 0.429293 1.96364 0.00914825 30 4 1 7.20583e-10 
1.39538 -0.673159 0.000580655 0.0025 0.546553 0.429291 1.96363 0.00914824 31 4 1 2.24877e-09 
1.39996 -0.673167 0.000485891 0.0025 0.546554 0.42929 1.96362 0.00914823 32 4 1 -5.64857e-10 
1.40453 -0.673176 0.000415285 0.0025 0.546555 0.429288 1.96361 0.00914821 33 4 1 -6.18746e-10 
1.40911 -0.673186 0.000413067 0.0025 0.546556 0.429287 1.9636 0.00914819 34 4 1 2.13986e-09 
1.41368 -0.673197 0.00051225 0.0025 0.546557 0.429285 1.96359 0.00914818 35 4 1 -4.46234e-10 
1.41825 -0.673209 0.00072131 0.0025 0.546557 0.429284 1.96358 0.00914818 36 3 1 -1.39089e-09 
1.42283 -0.673221 0.00102268 0.0025 0.546557 0.429281 1.96357 0.00914818 37 4 1 6.84254e-10 
1.4274 -0.673232 0.00138229 0.0025 0.546556 0.429279 1.96356 0.00914819 38 4 1 -7.94215e-10 
1.43198 -0.673243 0.00176273 0.0025 0.546554 0.429275 1.96355 0.00914823 39 4 1 -1.67401e-09 
1.43655 -0.673254 0.00213345 0.0025 0.546551 0.42927 1.96354 0.00914827 40 4 1 -2.09895e-10 
1.44113 -0.673265 0.00247648 0.0025 0.546547 0.429264 1.96353 0.00914834 41 4 1 -4.16444e-10 
1.4457 -0.673277 0.00278894 0.0025 0.546543 0.429257 1.96351 0.00914842 42 4 1 -1.41258e-09 
1.45027 -0.673288 0.00308172 0.0025 0.546537 0.42925 1.9635 0.00914851 43 4 1 -7.47624e-10 
1.45485 -0.673301 0.00337286 0.0025 0.546531 0.429241 1.96348 0.00914861 44 4 1 2.28521e-10 
1.45942 -0.673315 0.00367742 0.0025 0.546524 0.429232 1.96347 0.00914873 45 4 1 -1.1433e-09 
1.464 -0.67333 0.00400124 0.0025 0.546516 0.429222 1.96345 0.00914887 46 4 1 -1.54948e-09 
1.46857 -0.673347 0.00434512 0.0025 0.546507 0.429211 1.96343 0.00914901 47 4 1 -3.0809e-10 
1.47315 -0.673365 0.00471631 0.0025 0.546497 0.429199 1.96341 0.00914917 48 4 1 -7.21718e-10 
1.47772 -0.673385 0.00513484 0.0025 0.546487 0.429187 1.96339 0.00914936 49 4 1 -1.75719e-09 
1.48229 -0.673408 0.00562491 0.0025 0.546475 0.429172 1.96337 0.00914955 50 4 1 -1.64631e-09 
1.48687 -0.673432 0.00619699 0.0025 0.546462 0.429157 1.96334 0.00914977 51 4 1 -9.3555e-10 
1.49144 -0.67346 0.00684014 0.0025 0.546447 0.42914 1.96332 0.00915002 52 4 1 -1.86991e-09 
1.49602 -0.673491 0.00753865 0.0025 0.54643 0.429121 1.96329 0.0091503 53 4 1 -2.8139e-09 
-0.499405 -0.673525 0.00830289 0.0025 0.546412 0.4291 1.96326 0.0091506 54 4 1 -2.20808e-09 
-0.49483 -0.673563 0.00918211 0.0025 0.546392 0.429076 1.96323 0.00915094 55 4 1 -1.9582e-09 
-0.490254 -0.673606 0.0102334 0.0025 0.546369 0.429051 1.96319 0.00915132 56 4 1 -3.45511e-09 
-0.485678 -0.673655 0.0114652 0.0025 0.546344 0.429022 1.96315 0.00915174 57 4 1 -4.31775e-09 
-0.481102 -0.673708 0.0128216 0.0025 0.546316 0.42899 1.9631 0.00915222 58 4 1 -3.45703e-09 
-0.476526 -0.673769 0.0142559 0.0025 0.546284 0.428954 1.96305 0.00915276 59 4 1 -4.03267e-09 
-0.47195 -0.673837 0.0158326 0.0025 0.546248 0.428914 1.963 0.00915336 60 4 1 -5.18623e-09 
-0.467373 -0.673914 0.0177093 0.0025 0.546208 0.428869 1.96294 0.00915402 61 4 1 -5.71053e-09 
-0.462796 -0.673999 0.0199592 0.0025 0.546163 0.428819 1.96287 0.00915477 62 4 1 -5.79441e-09 
-0.458218 -0.674093 0.0224271 0.0025 0.546114 0.428764 1.9628 0.0091556 63 4 1 -6.4162e-09 
-0.45364 -0.674196 0.0248203 0.0025 0.546058 0.428702 1.96271 0.00915653 64 4 1 -6.39335e-09 
-0.449061 -0.674309 0.0269393 0.0025 0.545997 0.428635 1.96262 0.00915755 65 4 1 -4.98983e-09 
-0.444482 -0.674432 0.0287794 0.0025 0.545932 0.428562 1.96253 0.00915864 66 4 1 -3.69884e-09 
-0.439903 -0.674565 0.0304252 0.0025 0.545864 0.428486 1.96242 0.0091598 67 4 1 -2.68387e-09 
-0.435323 -0.674704 0.0318434 0.0025 0.545793 0.428408 1.96232 0.00916099 68 4 1 -1.12213e-09 
-0.430742 -0.674846 0.0326555 0.0025 0.545721 0.428328 1.96221 0.0091622 69 4 1 1.84536e-09 
-0.42616 -0.674984 0.0322293 0.0025 0.54565 0.42825 1.96211 0.00916339 70 4 1 5.65597e-09 
-0.421578 -0.675113 0.0302984 0.0025 0.545583 0.428176 1.96201 0.0091645 71 4 1 1.01481e-08 
-0.416996 -0.675227 0.0265711 0.0025 0.545525 0.428112 1.96192 0.00916548 72 4 1 1.60007e-08 
-0.412413 -0.67532 0.0202187 0.0025 0.54548 0.428063 1.96186 0.00916624 73 4 1 2.39006e-08 
-0.40783 -0.675384 0.010931 0.0025 0.545455 0.428034 1.96182 0.00916666 74 4 1 2.42908e-08 
-0.403246 -0.675406 0.00374976 0.0025 0.54545 0.428028 1.96181 0.00916675 75 5 1 2.47678e-08 
-0.398663 -0.675407 -0.000254925 0.0025 0.545466 0.428049 1.96183 0.00916647 76 4 1 1.0854e-07 
-0.39408 -0.675276 -0.0691008 0.0025 0.545574 0.428173 1.96198 0.00916466 77 4 1 2.71651e-07 
-0.389498 -0.674656 -0.204882 0.0025 0.5459 0.428534 1.96245 0.00915918 78 4 1 3.35965e-07 
-0.384921 -0.673538 -0.300898 0.0025 0.546492 0.429185 1.9633 0.00914927 79 4 1 3.99097e-07 
-0.380349 -0.671919 -0.445841 0.0025 0.547383 0.430174 1.96457 0.00913437 80 4 1 6.70984e-07 
-0.375786 -0.669384 -0.721479 0.0025 0.548751 0.431687 1.96653 0.0091116 81 4 1 9.9165e-07 
-0.371237 -0.665542 -1.05369 0.0025 0.550766 0.433909 1.96942 0.00907826 82 4 1 1.12228e-06 
-0.366708 -0.660393 -1.32346 0.0025 0.553424 0.436836 1.97321 0.00903467 83 4 1 1.06034e-06 
-0.362203 -0.654362 -1.49594 0.0025 0.556573 0.440313 1.9777 0.00898355 84 4 1 9.80656e-07 
-0.357724 -0.647739 -1.62062 0.0025 0.560068 0.444186 1.98266 0.00892749 85 4 1 9.89365e-07 
-0.353275 -0.64066 -1.73866 0.0025 0.563845 0.448386 1.98799 0.00886768 86 4 1 1.0961e-06 
-0.348857 -0.633072 -1.88538 0.0025 0.567913 0.452922 1.99372 0.00880417 87 4 1 1.23341e-06 
-0.344471 -0.624926 -2.04006 0.0025 0.572296 0.457823 1.99986 0.00873674 88 4 1 1.31108e-06 
-0.34012 -0.616271 -2.17267 0.0025 0.576976 0.46307 2.00638 0.00866588 89 4 1 1.33696e-06 
-0.335805 -0.607211 -2.28469 0.0025 0.581902 0.468611 2.01322 0.00859251 90 4 1 1.28443e-06 
-0.331527 -0.597917 -2.33826 0.0025 0.586993 0.474356 2.02024 0.00851799 91 4 1 1.18842e-06 
-0.327287 -0.588563 -2.36254 0.0025 0.592157 0.480205 2.02733 0.00844371 92 4 1 1.08644e-06 
-0.323083 -0.579272 -2.34919 0.0025 0.597322 0.486077 2.03439 0.0083707 93 4 1 9.96736e-07 
-0.318916 -0.570155 -2.32815 0.0025 0.602441 0.491918 2.04134 0.00829957 94 4 1 9.49279e-07 
-0.314783 -0.561189 -2.31055 0.0025 0.607503 0.497714 2.04819 0.00823041 95 4 1 9.08305e-07 
-0.310685 -0.552386 -2.28895 0.0025 0.612505 0.503459 2.05491 0.0081632 96 4 1 8.48972e-07 
-0.30662 -0.543799 -2.25257 0.0025 0.617432 0.509137 2.06151 0.00809806 97 4 1 8.16042e-07 
-0.302587 -0.535388 -2.23379 0.0025 0.622285 0.514749 2.06797 0.0080349 98 4 1 8.01661e-07 
-0.298585 -0.527128 -2.21502 0.0025 0.62708 0.520311 2.07433 0.00797346 99 4 1 7.65284e-07 
-0.294613 -0.519013 -2.18876 0.0025 0.631815 0.525819 2.08058 0.00791371 100 4 1 7.48712e-07 
-0.290671 -0.511051 -2.17711 0.0025 0.636496 0.531281 2.08673 0.00785551 101 4 1 7.44597e-07 
-0.286758 -0.503185 -2.16688 0.0025 0.641139 0.536716 2.09281 0.00779862 102 4 1 7.34975e-07 
-0.282872 -0.495423 -2.15999 0.0025 0.645754 0.542132 2.09882 0.00774289 103 4 1 7.45854e-07 
-0.279015 -0.487734 -2.16817 0.0025 0.650358 0.547552 2.10479 0.00768808 104 4 1 7.81514e-07 
-0.275184 -0.480029 -2.1964 0.0025 0.654982 0.553011 2.11077 0.00763379 105 4 1 7.81008e-07 
-0.271381 -0.472341 -2.20134 0.0025 0.659632 0.558515 2.11675 0.00757999 106 4 1 8.03648e-07 
-0.267604 -0.464657 -2.24228 0.0025 0.66432 0.564083 2.12275 0.00752649 107 4 1 8.72304e-07 
-0.263854 -0.456841 -2.30177 0.0025 0.669091 0.569762 2.12884 0.00747283 108 4 1 8.74572e-07 
-0.260131 -0.448939 -2.33038 0.0025 0.673936 0.575546 2.13499 0.0074191 109 4 1 8.61231e-07 
-0.256435 -0.441032 -2.36378 0.0025 0.678836 0.581413 2.14119 0.00736554 110 4 1 8.7352e-07 
-0.252766 -0.433042 -2.39917 0.0025 0.683794 0.587366 2.14743 0.00731214 111 4 1 8.84061e-07 
-0.249123 -0.425015 -2.4375 0.0025 0.68881 0.593406 2.15371 0.0072589 112 4 1 8.67562e-07 
-0.245507 -0.416957 -2.45384 0.0025 0.693866 0.599513 2.16002 0.007206 113 4 1 8.3884e-07 
-0.241917 -0.408945 -2.46624 0.0025 0.698942 0.605661 2.16633 0.00715367 114 4 1 8.37583e-07 
-0.238353 -0.400941 -2.48856 0.0025 0.704036 0.611849 2.17263 0.00710191 115 4 1 8.11894e-07 
-0.234815 -0.392965 -2.48509 0.0025 0.709134 0.61806 2.17891 0.00705085 116 4 1 7.7347e-07 
-0.231302 -0.385089 -2.47857 0.0025 0.714216 0.62427 2.18514 0.00700069 117 4 1 7.92535e-07 
-0.227814 -0.377227 -2.50575 0.0025 0.719301 0.630501 2.19135 0.0069512 118 4 1 7.89435e-07 
-0.224351 -0.369394 -2.50702 0.0025 0.724395 0.63676 2.19755 0.00690232 119 4 1 7.41975e-07 
-0.220912 -0.361646 -2.49415 0.0025 0.729469 0.643013 2.20369 0.0068543 120 4 1 7.44241e-07 
-0.217496 -0.353965 -2.5095 0.0025 0.734532 0.649271 2.20979 0.00680705 121 4 1 7.45904e-07 
-0.214104 -0.346318 -2.51136 0.0025 0.739596 0.655545 2.21588 0.00676045 122 4 1 7.27753e-07 
-0.210736 -0.338717 -2.51668 0.0025 0.744651 0.661826 2.22192 0.00671455 123 4 1 7.05317e-07 
-0.20739 -0.331178 -2.5066 0.0025 0.749691 0.668104 2.22792 0.00666942 124 4 1 6.81569e-07 
-0.204066 -0.323749 -2.49862 0.0025 0.754706 0.674372 2.23387 0.0066251 125 4 1 7.19783e-07 
-0.200765 -0.316329 -2.5381 0.0025 0.759732 0.680668 2.23981 0.00658127 126 4 1 7.15616e-07 
-0.197485 -0.308887 -2.53509 0.0025 0.764772 0.686996 2.24574 0.00653789 127 4 1 6.49782e-07 
-0.194227 -0.301572 -2.51021 0.0025 0.769782 0.693303 2.25161 0.00649535 128 4 1 6.39441e-07 
-0.190989 -0.294341 -2.50943 0.0025 0.774762 0.699593 2.25743 0.0064536 129 4 1 6.94294e-07 
-0.187773 -0.28711 -2.55569 0.0025 0.779761 0.705921 2.26324 0.00641222 130 4 1 6.76732e-07 
-0.184577 -0.279859 -2.54314 0.0025 0.784773 0.712278 2.26905 0.00637127 131 4 1 5.97321e-07 
-0.181402 -0.272759 -2.50867 0.0025 0.78974 0.718598 2.27478 0.0063312 132 4 1 6.08979e-07 
-0.178246 -0.265732 -2.5223 0.0025 0.794681 0.724902 2.28047 0.00629183 133 4 1 6.56254e-07 
-0.17511 -0.258695 -2.55231 0.0025 0.799642 0.731246 2.28615 0.0062528 134 4 1 6.54824e-07 
-0.171993 -0.25165 -2.56696 0.0025 0.804625 0.737631 2.29184 0.00621408 135 4 1 5.99268e-07 
-0.168896 -0.244675 -2.54015 0.0025 0.809588 0.744007 2.29748 0.00617598 136 4 1 5.58545e-07 
-0.165817 -0.237813 -2.52079 0.0025 0.814508 0.750347 2.30306 0.00613867 137 4 1 5.98463e-07 
-0.162757 -0.230989 -2.55219 0.0025 0.819425 0.756697 2.30861 0.00610184 138 4 1 6.23796e-07 
-0.159715 -0.224143 -2.56995 0.0025 0.824366 0.763091 2.31416 0.00606527 139 4 1 5.89875e-07 
-0.156692 -0.217319 -2.56573 0.0025 0.829305 0.769498 2.3197 0.00602914 140 4 1 5.3693e-07 
-0.153686 -0.210598 -2.53163 0.0025 0.834206 0.775871 2.32517 0.00599372 141 4 1 5.22946e-07 
-0.150698 -0.203991 -2.52348 0.0025 0.839067 0.782211 2.33058 0.005959 142 4 1 5.90206e-07 
-0.147727 -0.197374 -2.57701 0.0025 0.843951 0.788594 2.336 0.00592451 143 4 1 6.14234e-07 
-0.144773 -0.190704 -2.60103 0.0025 0.84888 0.795046 2.34145 0.00589011 144 4 1 5.51742e-07 
-0.141837 -0.18406 -2.58126 0.0025 0.8538 0.801502 2.34687 0.00585617 145 4 1 4.57386e-07 
-0.138917 -0.177577 -2.50605 0.0025 0.858644 0.807876 2.35218 0.00582314 146 4 1 4.94093e-07 
-0.136013 -0.171205 -2.54378 0.0025 0.863452 0.81422 2.35744 0.00579071 147 4 1 5.97556e-07 
-0.133126 -0.164744 -2.60438 0.0025 0.868318 0.820652 2.36274 0.00575826 148 4 1 5.91022e-07 
-0.130255 -0.1582 -2.63186 0.0025 0.873234 0.827159 2.36809 0.00572584 149 4 1 4.62895e-07 
-0.1274 -0.151786 -2.54116 0.0025 0.878094 0.833607 2.37335 0.00569415 150 4 1 3.77797e-07 
-0.124561 -0.145623 -2.47867 0.0025 0.882838 0.839924 2.37847 0.00566355 151 4 1 5.00613e-07 
-0.121737 -0.139458 -2.55744 0.0025 0.887586 0.84626 2.38357 0.00563326 152 4 1 6.38155e-07 
-0.118928 -0.133125 -2.66681 0.0025 0.892455 0.852764 2.3888 0.00560252 153 4 1 5.65952e-07 
-0.116134 -0.126685 -2.6459 0.0025 0.897374 0.859344 2.39406 0.00557181 154 4 1 3.62054e-07 
-0.113356 -0.120505 -2.50696 0.0025 0.902173 0.865784 2.39917 0.00554217 155 4 1 3.37733e-07 
-0.110592 -0.114587 -2.47608 0.0025 0.906846 0.872075 2.40413 0.00551361 156 4 1 5.13371e-07 
-0.107842 -0.108597 -2.58162 0.0025 0.911561 0.878435 2.40912 0.0054851 157 4 1 6.49746e-07 
-0.105107 -0.102366 -2.71692 0.0025 0.91643 0.885006 2.41426 0.00545595 158 4 1 4.93754e-07 
-0.102386 -0.0961013 -2.61671 0.0025 0.921312 0.891603 2.4194 0.00542705 159 4 1 2.66027e-07 
-0.0996797 -0.0902138 -2.4676 0.0025 0.926011 0.897976 2.42433 0.00539951 160 4 1 2.9485e-07 
-0.0969866 -0.0845384 -2.43699 0.0025 0.930575 0.904188 2.42909 0.00537302 161 4 1 5.24391e-07 
-0.0943067 -0.0787787 -2.60189 0.0025 0.935223 0.910523 2.43394 0.00534632 162 4 1 6.4405e-07 
-0.0916403 -0.0726805 -2.71528 0.0025 0.940053 0.917107 2.43896 0.00531885 163 4 1 4.70351e-07 
-0.0889878 -0.0666198 -2.63537 0.0025 0.944898 0.923722 2.44399 0.00529158 164 4 1 2.3777e-07 
-0.0863487 -0.0608524 -2.45752 0.0025 0.949558 0.930106 2.4488 0.00526561 165 4 1 2.83218e-07 
-0.0837221 -0.0553938 -2.47038 0.0025 0.954086 0.936331 2.45346 0.00524062 166 4 1 4.83853e-07 
-0.081108 -0.0496937 -2.57728 0.0025 0.958679 0.942643 2.45818 0.00521551 167 4 1 3.83956e-07 
-0.0785066 -0.0441232 -2.46521 0.0025 0.96328 0.948989 2.46288 0.0051906 168 4 1 6.15131e-07 
-0.0759174 -0.0383778 -2.8499 0.0025 0.968037 0.955562 2.46775 0.00516509 169 4 1 5.35292e-07 
-0.0733415 -0.0321523 -2.66297 0.0025 0.97287 0.962206 2.47269 0.00513943 170 4 1 -4.88635e-07 
-0.0707779 -0.0273989 -1.69062 0.0025 0.976959 0.967884 2.47681 0.00511792 171 4 1 1.57459e-07 
-0.0682235 -0.023275 -2.3805 0.0025 0.980881 0.973399 2.48076 0.00509746 172 4 1 1.78902e-06 
-0.0656804 -0.0166361 -3.67853 0.0025 0.986018 0.980507 2.48601 0.0050709 173 4 1 3.23046e-07 
-0.0631526 -0.00985426 -2.37617 0.0025 0.991101 0.987496 2.49115 0.00504489 174 4 1 -1.70905e-06 
-0.0606355 -0.00667872 -0.748292 0.0025 0.994326 0.992051 2.49431 0.00502853 175 4 1 2.24667e-07 
-0.0581241 -0.00379615 -2.2748 0.0025 0.997483 0.99658 2.49744 0.00501262 176 4 1 2.78336e-06 
-0.0556229 0.00332136 -4.30546 0.0025 1.00284 1.00402 2.50289 0.00498586 177 4 1 4.43856e-07 
-0.0531381 0.0108329 -2.51524 0.0025 1.00826 1.01148 2.50835 0.00495903 178 4 1 -2.90939e-06 
-0.0506638 0.0131108 0.186246 0.0025 1.01066 1.01489 2.51064 0.00494724 179 4 1 -9.11477e-07 
-0.0481909 0.0130577 -0.754643 0.0025 1.01188 1.01678 2.51178 0.00494129 180 4 1 2.64741e-06 
-0.0457226 0.0180578 -3.56364 0.0025 1.01542 1.0217 2.51539 0.00492409 181 4 1 4.00203e-07 
-0.0432668 0.0236981 -1.58402 0.0025 1.01932 1.02705 2.5193 0.00490524 182 4 1 -2.50589e-06 
-0.0408173 0.0246111 0.190156 0.0025 1.02051 1.02877 2.52043 0.00489949 183 3 1 -1.40276e-06 
-0.0383673 0.0237982 0.527688 0.0025 1.01993 1.028 2.51983 0.00490231 184 4 1 -3.41972e-07 
-0.035915 0.0225492 0.641911 0.0025 1.01888 1.02653 2.51879 0.00490737 185 4 1 -1.04916e-07 
-0.0334599 0.0211431 0.691698 0.0025 1.01766 1.02481 2.51759 0.00491323 186 4 1 -6.0016e-08 
-0.0310018 0.0196199 0.744382 0.0025 1.01634 1.02295 2.51628 0.00491961 187 4 1 -5.09687e-08 
-0.0285403 0.0179723 0.80094 0.0025 1.01492 1.02096 2.51487 0.00492649 188 4 1 -3.43186e-08 
-0.0260753 0.0162065 0.850203 0.0025 1.01342 1.01885 2.51338 0.00493378 189 4 1 -1.06755e-09 
-0.0236065 0.0143534 0.878132 0.0025 1.01188 1.01667 2.51184 0.00494132 190 4 1 4.32983e-08 
-0.021134 0.012464 0.875587 0.0025 1.01033 1.0145 2.51031 0.00494888 191 4 1 8.96076e-08 
-0.0186576 0.0105962 0.839778 0.0025 1.00884 1.01241 2.50882 0.00495618 192 4 1 1.29899e-07 
-0.0161778 0.00880258 0.773382 0.0025 1.00746 1.01047 2.50744 0.00496298 193 4 1 1.5969e-07 
-0.0136947 0.007122 0.682337 0.0025 1.00623 1.00874 2.50621 0.00496907 194 4 1 1.78111e-07 
-0.0112087 0.00557515 0.573592 0.0025 1.00517 1.00726 2.50516 0.00497428 195 4 1 1.8684e-07 
-0.00872038 0.00416449 0.453472 0.0025 1.00431 1.00605 2.50431 0.00497852 196 4 1 1.8877e-07 
-0.00623018 0.00287644 0.326853 0.0025 1.00367 1.00515 2.50366 0.00498173 197 4 1 1.86933e-07 
-0.00373865 0.00168484 0.196993 0.0025 1.00323 1.00454 2.50323 0.00498388 198 4 1 1.83898e-07 
-0.00124631 0.0005546 0.0657803 0.0025 1.00302 1.00424 2.50301 0.00498495 199 4 1 1.81403e-07 
0.00124631 -0.0005546 -0.0657803 0.0025 1.00302 1.00424 2.50301 0.00498495 200 4 1 1.81403e-07 
0.00373865 -0.00168484 -0.196993 0.0025 1.00323 1.00454 2.50323 0.00498388 201 4 1 1.83898e-07 
0.00623018 -0.00287644 -0.326853 0.0025 1.00367 1.00515 2.50366 0.00498173 202 4 1 1.86933e-07 
0.00872038 -0.00416449 -0.453472 0.0025 1.00431 1.00605 2.50431 0.00497852 203 4 1 1.8877e-07 
0.0112087 -0.00557515 -0.573592 0.0025 1.00517 1.00726 2.50516 0.00497428 204 4 1 1.8684e-07 
0.0136947 -0.007122 -0.682337 0.0025 1.00623 1.00874 2.50621 0.00496907 205 4 1 1.78111e-07 
0.0161778 -0.00880258 -0.773382 0.0025 1.00746 1.01047 2.50744 0.00496298 206 4 1 1.5969e-07 
0.0186576 -0.0105962 -0.839778 0.0025 1.00884 1.01241 2.50882 0.00495618 207 4 1 1.29899e-07 
0.021134 -0.012464 -0.875587 0.0025 1.01033 1.0145 2.51031 0.00494888 208 4 1 8.96076e-08 
0.0236065 -0.0143534 -0.878132 0.0025 1.01188 1.01667 2.51184 0.00494132 209 4 1 4.32983e-08 
0.0260753 -0.0162065 -0.850203 0.0025 1.01342 1.01885 2.51338 0.00493378 210 4 1 -1.06755e-09 
0.0285403 -0.0179723 -0.80094 0.0025 1.01492 1.02096 2.51487 0.00492649 211 4 1 -3.43186e-08 
