# Time [s]: 0.381424
# Columns: pos [m], vel [m/s], acc [m/s^2], mass [kg], dens [kg/m^3], pres [Pa], ene [J/kg], sml [m], id, neighbor, alpha, gradh, ...additional?
1.24549 -0.67308 0.000122487 0.0025 0.511056 0.432733 2.15251 0.00978366 0 4 1 -0.000134225 
1.25027 -0.67308 0.000127841 0.0025 0.536914 0.426196 1.95005 0.00931248 1 4 1 0.000179253 
1.25481 -0.673081 0.000133542 0.0025 0.548244 0.430866 1.96851 0.00912002 2 3 1 -1.90585e-05 
1.25939 -0.673082 0.000139809 0.0025 0.545979 0.429202 1.96465 0.00915786 3 5 1 3.48566e-06 
1.26397 -0.673083 0.000146317 0.0025 0.546377 0.429357 1.96459 0.00915118 4 4 1 -1.38692e-07 
1.26854 -0.673083 0.000152957 0.0025 0.546388 0.429327 1.96436 0.009151 5 4 1 1.43722e-07 
1.27312 -0.673084 0.00016006 0.0025 0.546411 0.429326 1.9643 0.00915062 6 4 1 -3.51899e-09 
1.27769 -0.673085 0.000168385 0.0025 0.546425 0.429323 1.96424 0.00915039 7 4 1 8.22504e-09 
1.28227 -0.673086 0.000178694 0.0025 0.546439 0.429323 1.96418 0.00915016 8 4 1 4.75056e-09 
1.28684 -0.673087 0.000191147 0.0025 0.546451 0.429322 1.96414 0.00914995 9 4 1 5.45852e-09 
1.29142 -0.673089 0.000204979 0.0025 0.546462 0.429321 1.9641 0.00914976 10 4 1 -2.25952e-09 
1.29599 -0.67309 0.000218813 0.0025 0.546473 0.429321 1.96405 0.00914958 11 4 1 4.70904e-09 
1.30057 -0.673091 0.00023153 0.0025 0.546483 0.42932 1.96401 0.00914941 12 4 1 2.83397e-09 
1.30514 -0.673093 0.000243154 0.0025 0.546492 0.42932 1.96398 0.00914927 13 4 1 3.55754e-09 
1.30972 -0.673094 0.000255098 0.0025 0.5465 0.429319 1.96395 0.00914914 14 4 1 2.10607e-09 
1.31429 -0.673096 0.000269519 0.0025 0.546507 0.429318 1.96392 0.00914902 15 4 1 -1.59838e-09 
1.31887 -0.673098 0.000288095 0.0025 0.546514 0.429317 1.96389 0.0091489 16 4 1 4.88034e-09 
1.32344 -0.6731 0.000310999 0.0025 0.546519 0.429317 1.96387 0.0091488 17 4 1 1.45439e-09 
1.32802 -0.673102 0.000336683 0.0025 0.546525 0.429316 1.96384 0.00914872 18 4 1 -1.22248e-09 
1.33259 -0.673104 0.000362607 0.0025 0.54653 0.429315 1.96382 0.00914863 19 4 1 2.67583e-09 
1.33717 -0.673106 0.000386403 0.0025 0.546534 0.429314 1.9638 0.00914855 20 4 1 1.15601e-09 
1.34174 -0.673109 0.000406709 0.0025 0.546538 0.429313 1.96378 0.00914849 21 4 1 1.19224e-09 
1.34631 -0.673111 0.000423027 0.0025 0.546542 0.429312 1.96376 0.00914843 22 4 1 1.07439e-09 
1.35089 -0.673114 0.000434465 0.0025 0.546545 0.429311 1.96375 0.00914838 23 4 1 -1.34265e-10 
1.35546 -0.673117 0.000437913 0.0025 0.546548 0.429309 1.96373 0.00914833 24 4 1 1.54601e-09 
1.36004 -0.673121 0.000426924 0.0025 0.546551 0.429308 1.96372 0.00914828 25 4 1 8.52861e-10 
1.36461 -0.673125 0.000392852 0.0025 0.546553 0.429307 1.9637 0.00914824 26 4 1 -1.76664e-10 
1.36918 -0.673129 0.000329086 0.0025 0.546555 0.429306 1.96369 0.0091482 27 4 1 1.48721e-09 
1.37376 -0.673134 0.000237353 0.0025 0.546558 0.429305 1.96368 0.00914817 28 4 1 1.19814e-09 
1.37833 -0.673141 0.0001328 0.0025 0.54656 0.429304 1.96367 0.00914813 29 4 1 -4.12229e-10 
1.38291 -0.673148 4.38402e-05 0.0025 0.546562 0.429304 1.96366 0.00914809 30 4 1 8.06319e-10 
1.38748 -0.673156 4.91307e-06 0.0025 0.546564 0.429304 1.96365 0.00914805 31 4 1 2.12615e-09 
1.39205 -0.673164 4.46251e-05 0.0025 0.546566 0.429303 1.96364 0.00914802 32 4 1 -9.09186e-10 
1.39663 -0.673173 0.000175176 0.0025 0.546568 0.429303 1.96363 0.00914799 33 4 1 -1.11873e-09 
1.4012 -0.673182 0.000388497 0.0025 0.54657 0.429302 1.96362 0.00914796 34 4 1 1.6099e-09 
1.40578 -0.673191 0.000660391 0.0025 0.546571 0.429301 1.96361 0.00914795 35 4 1 -8.70108e-10 
1.41035 -0.673199 0.00095951 0.0025 0.546571 0.429299 1.9636 0.00914794 36 3 1 -1.61213e-09 
1.41492 -0.673207 0.00125664 0.0025 0.54657 0.429296 1.96359 0.00914795 37 4 1 6.97046e-10 
1.4195 -0.673215 0.00153138 0.0025 0.546569 0.429293 1.96358 0.00914798 38 4 1 -5.7717e-10 
1.42407 -0.673222 0.00177536 0.0025 0.546567 0.429289 1.96357 0.00914801 39 4 1 -1.32182e-09 
1.42865 -0.67323 0.00199158 0.0025 0.546564 0.429284 1.96356 0.00914806 40 4 1 1.95988e-10 
1.43322 -0.673238 0.00219003 0.0025 0.546561 0.429279 1.96355 0.00914811 41 4 1 -2.43597e-11 
1.43779 -0.673246 0.0023813 0.0025 0.546557 0.429273 1.96353 0.00914818 42 4 1 -1.06709e-09 
1.44237 -0.673255 0.00257217 0.0025 0.546552 0.429266 1.96352 0.00914825 43 4 1 -4.42046e-10 
1.44694 -0.673265 0.00276644 0.0025 0.546547 0.42926 1.96351 0.00914834 44 4 1 5.21654e-10 
1.45152 -0.673276 0.00296992 0.0025 0.546542 0.429252 1.96349 0.00914843 45 4 1 -8.4562e-10 
1.45609 -0.673288 0.00319355 0.0025 0.546536 0.429244 1.96348 0.00914853 46 4 1 -1.2564e-09 
1.46067 -0.673301 0.00344971 0.0025 0.546529 0.429235 1.96346 0.00914865 47 4 1 -3.57535e-11 
1.46524 -0.673316 0.00374381 0.0025 0.546521 0.429226 1.96345 0.00914877 48 4 1 -4.54963e-10 
1.46981 -0.673331 0.00407041 0.0025 0.546513 0.429216 1.96343 0.00914891 49 4 1 -1.43622e-09 
1.47439 -0.673349 0.00442119 0.0025 0.546504 0.429205 1.96341 0.00914906 50 4 1 -1.20665e-09 
1.47896 -0.673368 0.00479999 0.0025 0.546494 0.429192 1.96339 0.00914923 51 4 1 -3.71972e-10 
1.48354 -0.67339 0.0052291 0.0025 0.546483 0.429179 1.96337 0.00914942 52 4 1 -1.25233e-09 
1.48811 -0.673413 0.00573488 0.0025 0.546471 0.429165 1.96335 0.00914962 53 4 1 -2.21431e-09 
1.49269 -0.67344 0.00632307 0.0025 0.546457 0.429149 1.96332 0.00914985 54 4 1 -1.59547e-09 
1.49726 -0.673469 0.00697397 0.0025 0.546442 0.429131 1.9633 0.0091501 55 4 1 -1.18896e-09 
-0.498162 -0.673502 0.00767593 0.0025 0.546425 0.429112 1.96327 0.00915039 56 4 1 -2.42152e-09 
-0.493587 -0.673538 0.00846898 0.0025 0.546406 0.42909 1.96324 0.0091507 57 4 1 -3.12874e-09 
-0.489011 -0.673579 0.00943896 0.0025 0.546386 0.429067 1.9632 0.00915105 58 4 1 -2.40701e-09 
-0.484436 -0.673625 0.0106448 0.0025 0.546362 0.42904 1.96317 0.00915144 59 4 1 -3.28826e-09 
-0.47986 -0.673675 0.0120501 0.0025 0.546335 0.42901 1.96313 0.00915189 60 4 1 -4.50185e-09 
-0.475284 -0.673731 0.0135482 0.0025 0.546305 0.428976 1.96308 0.00915239 61 4 1 -4.59777e-09 
-0.470708 -0.673793 0.0150718 0.0025 0.546272 0.428938 1.96303 0.00915295 62 4 1 -4.10103e-09 
-0.466131 -0.673864 0.0166735 0.0025 0.546234 0.428896 1.96297 0.00915359 63 4 1 -4.70125e-09 
-0.461554 -0.673943 0.0184918 0.0025 0.546192 0.428849 1.96291 0.00915429 64 4 1 -5.62037e-09 
-0.456977 -0.674032 0.0206248 0.0025 0.546146 0.428798 1.96284 0.00915506 65 4 1 -5.81904e-09 
-0.452399 -0.674129 0.02302 0.0025 0.546094 0.42874 1.96276 0.00915593 66 4 1 -6.08148e-09 
-0.447821 -0.674236 0.025481 0.0025 0.546038 0.428677 1.96267 0.00915688 67 4 1 -6.09996e-09 
-0.443242 -0.674351 0.0277653 0.0025 0.545976 0.428609 1.96258 0.00915792 68 4 1 -5.21099e-09 
-0.438663 -0.674474 0.0296172 0.0025 0.545909 0.428535 1.96248 0.00915903 69 4 1 -3.19573e-09 
-0.434083 -0.674605 0.0307957 0.0025 0.54584 0.428458 1.96238 0.0091602 70 4 1 -1.04099e-09 
-0.429503 -0.674742 0.0312981 0.0025 0.545769 0.42838 1.96228 0.00916139 71 4 1 1.22217e-09 
-0.424922 -0.674881 0.0312625 0.0025 0.545699 0.428303 1.96217 0.00916256 72 4 1 4.01219e-09 
-0.42034 -0.675015 0.0303382 0.0025 0.545633 0.42823 1.96208 0.00916368 73 4 1 7.42775e-09 
-0.415758 -0.675137 0.0278317 0.0025 0.545572 0.428162 1.96199 0.0091647 74 4 1 1.19499e-08 
-0.411175 -0.675241 0.0231323 0.0025 0.545521 0.428106 1.96191 0.00916555 75 4 1 1.8124e-08 
-0.406592 -0.675322 0.0159798 0.0025 0.545485 0.428066 1.96186 0.00916616 76 4 1 2.20648e-08 
-0.402009 -0.675369 0.00983153 0.0025 0.545467 0.428046 1.96183 0.00916646 77 5 1 2.25744e-08 
-0.397426 -0.675361 0.000336443 0.0025 0.545468 0.428048 1.96183 0.00916644 78 4 1 3.7306e-08 
-0.392843 -0.675351 -0.00972717 0.0025 0.545502 0.428089 1.96187 0.00916587 79 4 1 1.56329e-07 
-0.38826 -0.675109 -0.109866 0.0025 0.545665 0.428273 1.96211 0.00916314 80 4 1 3.08274e-07 
-0.38368 -0.67432 -0.239937 0.0025 0.546075 0.428725 1.96269 0.00915626 81 4 1 3.51439e-07 
-0.379104 -0.673047 -0.344053 0.0025 0.546758 0.429478 1.96367 0.00914482 82 4 1 4.46286e-07 
-0.374535 -0.671193 -0.510297 0.0025 0.54777 0.430599 1.96512 0.00912792 83 4 1 7.1843e-07 
-0.369976 -0.66838 -0.789713 0.0025 0.54928 0.432268 1.96729 0.00910283 84 4 1 1.00423e-06 
-0.365432 -0.66425 -1.10912 0.0025 0.551427 0.434635 1.97036 0.00906739 85 4 1 1.09282e-06 
-0.360908 -0.658944 -1.35113 0.0025 0.554175 0.437663 1.97428 0.00902242 86 4 1 1.01794e-06 
-0.356409 -0.652825 -1.50948 0.0025 0.557371 0.441194 1.97883 0.00897069 87 4 1 9.41482e-07 
-0.351938 -0.646198 -1.61917 0.0025 0.560879 0.445084 1.9838 0.00891458 88 4 1 9.43882e-07 
-0.347495 -0.639162 -1.7254 0.0025 0.564638 0.449267 1.98911 0.00885523 89 4 1 1.05025e-06 
-0.343082 -0.631666 -1.86446 0.0025 0.568665 0.453759 1.99477 0.00879253 90 4 1 1.16473e-06 
-0.338702 -0.623661 -1.99774 0.0025 0.572975 0.458581 2.0008 0.00872638 91 4 1 1.23458e-06 
-0.334356 -0.615203 -2.12486 0.0025 0.577554 0.463718 2.00718 0.0086572 92 4 1 1.25457e-06 
-0.330045 -0.606366 -2.22001 0.0025 0.582356 0.469121 2.01384 0.00858581 93 4 1 1.20536e-06 
-0.32577 -0.597346 -2.27415 0.0025 0.587306 0.474709 2.02067 0.00851345 94 4 1 1.12094e-06 
-0.321531 -0.588255 -2.29369 0.0025 0.592323 0.480393 2.02756 0.00844133 95 4 1 1.02619e-06 
-0.317328 -0.579237 -2.28479 0.0025 0.597342 0.486099 2.03441 0.00837041 96 4 1 9.37275e-07 
-0.313161 -0.570378 -2.25803 0.0025 0.602315 0.491773 2.04117 0.00830131 97 4 1 8.96372e-07 
-0.309027 -0.561675 -2.24695 0.0025 0.607232 0.497403 2.04782 0.00823408 98 4 1 8.61234e-07 
-0.304926 -0.553121 -2.22294 0.0025 0.612094 0.502986 2.05436 0.00816867 99 4 1 8.06119e-07 
-0.300858 -0.544747 -2.19317 0.0025 0.616886 0.508507 2.06078 0.00810523 100 4 1 7.73493e-07 
-0.296821 -0.536561 -2.1699 0.0025 0.621608 0.513965 2.06707 0.00804366 101 4 1 7.60685e-07 
-0.292814 -0.528504 -2.15608 0.0025 0.626274 0.519374 2.07326 0.00798372 102 4 1 7.37697e-07 
-0.288837 -0.520597 -2.1357 0.0025 0.630889 0.52474 2.07936 0.00792533 103 4 1 7.09355e-07 
-0.284889 -0.512824 -2.11659 0.0025 0.635451 0.53006 2.08536 0.00786843 104 4 1 7.08506e-07 
-0.280969 -0.505157 -2.11353 0.0025 0.639976 0.535352 2.09129 0.0078128 105 4 1 7.02164e-07 
-0.277076 -0.497572 -2.10317 0.0025 0.644473 0.540627 2.09715 0.00775827 106 4 1 6.9331e-07 
-0.27321 -0.490092 -2.101 0.0025 0.648949 0.545892 2.10297 0.00770476 107 4 1 7.27836e-07 
-0.269371 -0.482603 -2.12747 0.0025 0.653436 0.551184 2.10877 0.00765186 108 4 1 7.46007e-07 
-0.265558 -0.475106 -2.14142 0.0025 0.65795 0.556522 2.11459 0.00759936 109 4 1 7.37491e-07 
-0.261772 -0.46765 -2.15366 0.0025 0.662486 0.561902 2.1204 0.00754733 110 4 1 7.95958e-07 
-0.258011 -0.460122 -2.21458 0.0025 0.667083 0.567369 2.12628 0.00749532 111 4 1 8.30691e-07 
-0.254276 -0.452489 -2.24957 0.0025 0.671759 0.572944 2.13223 0.00744315 112 4 1 8.15884e-07 
-0.250568 -0.444807 -2.28148 0.0025 0.676492 0.578604 2.13822 0.00739107 113 4 1 8.12463e-07 
-0.246885 -0.437088 -2.30641 0.0025 0.681275 0.584339 2.14426 0.00733918 114 4 1 8.23519e-07 
-0.243228 -0.429334 -2.34476 0.0025 0.686109 0.590152 2.15033 0.00728747 115 4 1 8.33761e-07 
-0.239597 -0.42153 -2.37611 0.0025 0.690997 0.596044 2.15644 0.00723592 116 4 1 7.99928e-07 
-0.235992 -0.413726 -2.38061 0.0025 0.69591 0.601985 2.16256 0.00718484 117 4 1 7.83454e-07 
-0.232413 -0.405974 -2.39936 0.0025 0.700836 0.607959 2.16867 0.00713434 118 4 1 7.83798e-07 
-0.228858 -0.398206 -2.4131 0.0025 0.705778 0.613969 2.17478 0.00708438 119 4 1 7.50271e-07 
-0.225328 -0.390496 -2.40685 0.0025 0.710717 0.619991 2.18085 0.00703515 120 4 1 7.29116e-07 
-0.221823 -0.382879 -2.40857 0.0025 0.715642 0.626015 2.18688 0.00698673 121 4 1 7.46865e-07 
-0.218341 -0.375271 -2.4307 0.0025 0.720574 0.632063 2.1929 0.00693891 122 4 1 7.31782e-07 
-0.214884 -0.367693 -2.42646 0.0025 0.725508 0.638129 2.19889 0.00689173 123 4 1 7.00363e-07 
-0.211449 -0.360197 -2.42444 0.0025 0.730426 0.644194 2.20484 0.00684532 124 4 1 6.97051e-07 
-0.208038 -0.352752 -2.42843 0.0025 0.735334 0.650262 2.21076 0.00679963 125 4 1 6.89716e-07 
-0.20465 -0.345359 -2.43 0.0025 0.740234 0.656337 2.21664 0.00675462 126 4 1 6.96282e-07 
-0.201284 -0.338 -2.44885 0.0025 0.745137 0.66243 2.2225 0.00671017 127 4 1 6.63812e-07 
-0.197939 -0.330681 -2.42741 0.0025 0.750026 0.668522 2.22832 0.00666644 128 4 1 6.33416e-07 
-0.194617 -0.323488 -2.42298 0.0025 0.754886 0.674595 2.23408 0.00662352 129 4 1 6.6658e-07 
-0.191316 -0.316301 -2.44789 0.0025 0.75975 0.680689 2.23983 0.00658112 130 4 1 6.83009e-07 
-0.188036 -0.309116 -2.4681 0.0025 0.764634 0.686822 2.24558 0.00653907 131 4 1 6.2989e-07 
-0.184777 -0.301976 -2.44171 0.0025 0.769504 0.692952 2.25129 0.00649769 132 4 1 5.84758e-07 
-0.181538 -0.294974 -2.42371 0.0025 0.774332 0.699048 2.25693 0.00645718 133 4 1 6.36728e-07 
-0.17832 -0.287987 -2.46604 0.0025 0.779165 0.705166 2.26255 0.00641712 134 4 1 6.51956e-07 
-0.175121 -0.280966 -2.47324 0.0025 0.784023 0.711325 2.26818 0.00637737 135 4 1 5.85616e-07 
-0.171942 -0.274023 -2.44655 0.0025 0.788856 0.717471 2.27376 0.0063383 136 4 1 5.61915e-07 
-0.168783 -0.267195 -2.43795 0.0025 0.793653 0.723587 2.27928 0.00629998 137 4 1 5.90351e-07 
-0.165642 -0.260406 -2.45548 0.0025 0.798446 0.729715 2.28478 0.00626216 138 4 1 6.24472e-07 
-0.16252 -0.2536 -2.49027 0.0025 0.803267 0.73589 2.29029 0.00622458 139 4 1 5.9654e-07 
-0.159417 -0.246797 -2.47986 0.0025 0.808096 0.742087 2.29579 0.00618739 140 4 1 5.33782e-07 
-0.156333 -0.24009 -2.45114 0.0025 0.812886 0.748254 2.30122 0.00615092 141 4 1 5.34941e-07 
-0.153266 -0.233469 -2.45471 0.0025 0.817648 0.754398 2.3066 0.0061151 142 4 1 5.66978e-07 
-0.150218 -0.226863 -2.47398 0.0025 0.822415 0.760564 2.31197 0.00607965 143 4 1 5.81608e-07 
-0.147187 -0.220251 -2.49782 0.0025 0.827203 0.76677 2.31734 0.00604446 144 4 1 5.46346e-07 
-0.144173 -0.213651 -2.48201 0.0025 0.831986 0.772982 2.32269 0.00600971 145 4 1 4.93748e-07 
-0.141177 -0.207194 -2.45267 0.0025 0.836727 0.779155 2.32798 0.00597567 146 4 1 4.95319e-07 
-0.138198 -0.20078 -2.45095 0.0025 0.841436 0.785303 2.33321 0.00594222 147 4 1 5.50178e-07 
-0.135235 -0.194391 -2.49455 0.0025 0.846167 0.791492 2.33845 0.005909 148 4 1 5.79963e-07 
-0.132288 -0.187921 -2.5287 0.0025 0.850942 0.797751 2.34372 0.00587584 149 4 1 5.07524e-07 
-0.129359 -0.181495 -2.49013 0.0025 0.855705 0.804006 2.34896 0.00584314 150 4 1 4.38702e-07 
-0.126445 -0.175233 -2.45027 0.0025 0.860402 0.810192 2.3541 0.00581124 151 4 1 4.53482e-07 
-0.123548 -0.169061 -2.44561 0.0025 0.86506 0.816342 2.35919 0.00577995 152 4 1 5.50911e-07 
-0.120665 -0.162831 -2.53068 0.0025 0.869764 0.822565 2.36432 0.00574868 153 4 1 5.69935e-07 
-0.117799 -0.156501 -2.54964 0.0025 0.87453 0.828878 2.36949 0.00571735 154 4 1 4.40669e-07 
-0.114948 -0.150277 -2.47793 0.0025 0.879249 0.835142 2.3746 0.00568667 155 4 1 3.6372e-07 
-0.112112 -0.144258 -2.41587 0.0025 0.883864 0.841288 2.37957 0.00565698 156 4 1 4.30851e-07 
-0.109291 -0.138336 -2.44535 0.0025 0.88845 0.847411 2.3845 0.00562778 157 4 1 5.85545e-07 
-0.106484 -0.13224 -2.57677 0.0025 0.893139 0.85368 2.38953 0.00559823 158 4 1 5.62964e-07 
-0.103693 -0.126017 -2.57293 0.0025 0.897909 0.860062 2.39463 0.0055685 159 4 1 3.96698e-07 
-0.100916 -0.119946 -2.49225 0.0025 0.902609 0.866367 2.39963 0.0055395 160 4 1 2.91217e-07 
-0.0981531 -0.11414 -2.37806 0.0025 0.907164 0.872499 2.40447 0.00551168 161 4 1 4.05808e-07 
-0.095404 -0.108436 -2.46116 0.0025 0.911689 0.878606 2.40925 0.00548433 162 4 1 5.88723e-07 
-0.0926687 -0.102473 -2.58652 0.0025 0.916349 0.884898 2.41417 0.00545644 163 4 1 5.4795e-07 
-0.0899475 -0.0964114 -2.60346 0.0025 0.921097 0.891316 2.41917 0.00542831 164 4 1 3.36665e-07 
-0.0872404 -0.090497 -2.4586 0.0025 0.925746 0.897615 2.42405 0.00540105 165 4 1 2.25615e-07 
-0.0845465 -0.0849755 -2.35501 0.0025 0.930212 0.903689 2.42872 0.00537512 166 4 1 3.81954e-07 
-0.0818652 -0.0794487 -2.43727 0.0025 0.934653 0.909742 2.43334 0.00534958 167 4 1 5.44725e-07 
-0.0791968 -0.0737773 -2.55251 0.0025 0.939226 0.915983 2.4381 0.00532353 168 4 1 6.08008e-07 
-0.0765417 -0.0678153 -2.68825 0.0025 0.943959 0.922442 2.44302 0.00529684 169 4 1 3.16394e-07 
-0.0739 -0.0619749 -2.42855 0.0025 0.948603 0.928791 2.44781 0.00527091 170 4 1 1.33264e-07 
-0.0712707 -0.0567244 -2.33596 0.0025 0.952999 0.934836 2.45234 0.0052466 171 4 1 4.84058e-07 
-0.0686534 -0.0512126 -2.57258 0.0025 0.957457 0.940963 2.45693 0.00522217 172 4 1 3.62789e-07 
-0.0660485 -0.0456559 -2.34574 0.0025 0.96192 0.9471 2.4615 0.00519794 173 4 1 2.28583e-07 
-0.0634554 -0.0405951 -2.36914 0.0025 0.966271 0.953126 2.46593 0.00517453 174 4 1 8.536e-07 
-0.060874 -0.0347291 -2.98202 0.0025 0.970995 0.959649 2.47077 0.00514935 175 4 1 3.61713e-07 
-0.058306 -0.0286574 -2.3951 0.0025 0.975688 0.966099 2.47556 0.00512459 176 4 1 -7.22858e-07 
-0.0557493 -0.0245146 -1.50165 0.0025 0.979438 0.971333 2.47931 0.00510497 177 4 1 3.75563e-07 
-0.053201 -0.0204572 -2.45829 0.0025 0.983237 0.976678 2.48314 0.00508524 178 4 1 1.83761e-06 
-0.0506641 -0.0138195 -3.61533 0.0025 0.98834 0.983737 2.48835 0.00505899 179 4 1 2.02673e-07 
-0.048142 -0.00724967 -2.29649 0.0025 0.99329 0.990549 2.49335 0.00503378 180 4 1 -1.76756e-06 
-0.0456303 -0.00428275 -0.620679 0.0025 0.996326 0.994842 2.49632 0.00501844 181 4 1 1.00822e-07 
-0.0431235 -0.00178851 -2.06399 0.0025 0.999204 0.998987 2.49916 0.00500398 182 4 1 2.74087e-06 
-0.0406263 0.00492273 -4.18401 0.0025 1.00429 1.00606 2.50434 0.00497863 183 4 1 5.76142e-07 
-0.0381449 0.0122862 -2.5317 0.0025 1.00961 1.01337 2.50969 0.00495242 184 4 1 -2.80169e-06 
-0.0356738 0.0145599 0.0829374 0.0025 1.01201 1.01678 2.51198 0.00494066 185 4 1 -1.02933e-06 
-0.0332042 0.0143333 -0.555012 0.0025 1.01311 1.01848 2.51301 0.00493532 186 4 1 2.29907e-06 
-0.0307385 0.0186619 -3.17964 0.0025 1.01621 1.02281 2.51618 0.00492022 187 4 1 2.45428e-07 
-0.028284 0.0232862 -1.24837 0.0025 1.01957 1.02741 2.51954 0.00490403 188 4 1 -2.23077e-06 
-0.0258345 0.0237276 0.0914166 0.0025 1.02051 1.02878 2.52043 0.0048995 189 3 1 -1.14496e-06 
-0.0233845 0.022693 0.434734 0.0025 1.01999 1.02808 2.51989 0.00490203 190 4 1 -2.82606e-07 
-0.0209324 0.0211545 0.524464 0.0025 1.01908 1.02681 2.51899 0.0049064 191 4 1 -6.16548e-08 
-0.018478 0.0193655 0.540592 0.0025 1.01806 1.02539 2.51798 0.00491128 192 4 1 5.03445e-09 
-0.0160212 0.0173717 0.534769 0.0025 1.01704 1.02394 2.51696 0.00491625 193 4 1 3.50786e-08 
-0.0135618 0.0151709 0.514639 0.0025 1.01603 1.02252 2.51596 0.00492113 194 4 1 6.33148e-08 
-0.0111 0.0127603 0.476627 0.0025 1.01507 1.02117 2.51502 0.00492576 195 4 1 9.87194e-08 
-0.00863604 0.0101528 0.413841 0.0025 1.01422 1.01997 2.51417 0.00492991 196 4 1 1.3856e-07 
-0.00617012 0.00737819 0.322919 0.0025 1.01351 1.01899 2.51347 0.00493333 197 4 1 1.76225e-07 
-0.00370271 0.00447821 0.206008 0.0025 1.01301 1.01828 2.51297 0.00493577 198 4 1 2.04915e-07 
-0.00123434 0.00150135 0.0708545 0.0025 1.01275 1.01791 2.51271 0.00493705 199 4 1 2.19648e-07 
0.00123434 -0.00150135 -0.0708545 0.0025 1.01275 1.01791 2.51271 0.00493705 200 4 1 2.19648e-07 
0.00370271 -0.00447821 -0.206008 0.0025 1.01301 1.01828 2.51297 0.00493577 201 4 1 2.04915e-07 
0.00617012 -0.00737819 -0.322919 0.0025 1.01351 1.01899 2.51347 0.00493333 202 4 1 1.76225e-07 
0.00863604 -0.0101528 -0.413841 0.0025 1.01422 1.01997 2.51417 0.00492991 203 4 1 1.3856e-07 
0.0111 -0.0127603 -0.476627 0.0025 1.01507 1.02117 2.51502 0.00492576 204 4 1 9.87194e-08 
0.0135618 -0.0151709 -0.514639 0.0025 1.01603 1.02252 2.51596 0.00492113 205 4 1 6.33148e-08 
0.0160212 -0.0173717 -0.534769 0.0025 1.01704 1.02394 2.51696 0.00491625 206 4 1 3.50786e-08 
0.018478 -0.0193655 -0.540592 0.0025 1.01806 1.02539 2.51798 0.00491128 207 4 1 5.03445e-09 
0.0209324 -0.0211545 -0.524464 0.0025 1.01908 1.02681 2.51899 0.0049064 208 4 1 -6.16548e-08 
0.0233845 -0.022693 -0.434734 0.0025 1.01999 1.02808 2.51989 0.00490203 209 4 1 -2.82606e-07 
0.0258345 -0.0237276 -0.0914166 0.0025 1.02051 1.02878 2.52043 0.0048995 210 3 1 -1.14496e-06 
0.028284 -0.0232862 1.24837 0.0025 1.01957 1.02741 2.51954 0.00490403 211 4 1 -2.23077e-06 
