# Time [s]: 0.375862
# Columns: pos [m], vel [m/s], acc [m/s^2], mass [kg], dens [kg/m^3], pres [Pa], ene [J/kg], sml [m], id, neighbor, alpha, gradh, ...additional?
1.24924 -0.67308 0.000137131 0.0025 0.511056 0.432733 2.15251 0.00978366 0 4 1 -0.000134225 
1.25402 -0.673081 0.000142971 0.0025 0.536914 0.426196 1.95005 0.00931249 1 4 1 0.000179253 
1.25855 -0.673082 0.000149185 0.0025 0.548244 0.430866 1.96851 0.00912003 2 3 1 -1.90585e-05 
1.26314 -0.673083 0.0001563 0.0025 0.545979 0.429201 1.96465 0.00915787 3 5 1 3.48567e-06 
1.26771 -0.673083 0.000164175 0.0025 0.546377 0.429356 1.96459 0.00915119 4 4 1 -1.38695e-07 
1.27229 -0.673084 0.000172481 0.0025 0.546388 0.429327 1.96436 0.00915101 5 4 1 1.43718e-07 
1.27686 -0.673085 0.000180927 0.0025 0.546411 0.429325 1.9643 0.00915063 6 4 1 -3.52234e-09 
1.28144 -0.673086 0.000189667 0.0025 0.546424 0.429323 1.96424 0.00915041 7 4 1 8.22367e-09 
1.28601 -0.673087 0.000199474 0.0025 0.546438 0.429322 1.96418 0.00915017 8 4 1 4.75095e-09 
1.29059 -0.673089 0.000211394 0.0025 0.54645 0.429321 1.96413 0.00914996 9 4 1 5.45852e-09 
1.29516 -0.67309 0.000226016 0.0025 0.546461 0.429321 1.96409 0.00914978 10 4 1 -2.26286e-09 
1.29974 -0.673091 0.000242848 0.0025 0.546472 0.42932 1.96405 0.0091496 11 4 1 4.70066e-09 
1.30431 -0.673093 0.000260382 0.0025 0.546482 0.429319 1.96401 0.00914943 12 4 1 2.82178e-09 
1.30889 -0.673094 0.00027697 0.0025 0.546491 0.429318 1.96398 0.00914928 13 4 1 3.54542e-09 
1.31346 -0.673096 0.000292015 0.0025 0.546498 0.429318 1.96395 0.00914916 14 4 1 2.09844e-09 
1.31804 -0.673098 0.000306629 0.0025 0.546506 0.429317 1.96392 0.00914904 15 4 1 -1.59947e-09 
1.32261 -0.6731 0.000323205 0.0025 0.546512 0.429316 1.96389 0.00914892 16 4 1 4.8839e-09 
1.32719 -0.673102 0.000344086 0.0025 0.546518 0.429315 1.96386 0.00914883 17 4 1 1.45755e-09 
1.33176 -0.673104 0.000370147 0.0025 0.546523 0.429314 1.96384 0.00914874 18 4 1 -1.22524e-09 
1.33633 -0.673106 0.000400204 0.0025 0.546528 0.429313 1.96382 0.00914866 19 4 1 2.66404e-09 
1.34091 -0.673109 0.000431588 0.0025 0.546533 0.429312 1.9638 0.00914858 20 4 1 1.13569e-09 
1.34548 -0.673111 0.00046151 0.0025 0.546537 0.429311 1.96378 0.00914852 21 4 1 1.16617e-09 
1.35006 -0.673114 0.000488305 0.0025 0.54654 0.42931 1.96376 0.00914846 22 4 1 1.04442e-09 
1.35463 -0.673117 0.000511733 0.0025 0.546543 0.429308 1.96374 0.00914841 23 4 1 -1.70647e-10 
1.35921 -0.67312 0.000531926 0.0025 0.546546 0.429307 1.96373 0.00914836 24 4 1 1.49513e-09 
1.36378 -0.673124 0.000547284 0.0025 0.546548 0.429306 1.96371 0.00914832 25 4 1 7.76865e-10 
1.36835 -0.673127 0.000552466 0.0025 0.54655 0.429304 1.9637 0.00914829 26 4 1 -2.83051e-10 
1.37293 -0.673132 0.000538247 0.0025 0.546552 0.429303 1.96368 0.00914826 27 4 1 1.36028e-09 
1.3775 -0.673137 0.00049488 0.0025 0.546554 0.429301 1.96367 0.00914823 28 4 1 1.08093e-09 
1.38208 -0.673142 0.00041889 0.0025 0.546556 0.4293 1.96366 0.0091482 29 4 1 -4.7489e-10 
1.38665 -0.673149 0.000320402 0.0025 0.546557 0.429299 1.96365 0.00914817 30 4 1 8.39449e-10 
1.39122 -0.673156 0.000225989 0.0025 0.546559 0.429298 1.96364 0.00914814 31 4 1 2.27022e-09 
1.3958 -0.673165 0.000173221 0.0025 0.54656 0.429297 1.96363 0.00914812 32 4 1 -6.7806e-10 
1.40037 -0.673174 0.000197848 0.0025 0.546562 0.429296 1.96362 0.00914809 33 4 1 -8.57233e-10 
1.40495 -0.673184 0.000319986 0.0025 0.546564 0.429295 1.96361 0.00914806 34 4 1 1.8348e-09 
1.40952 -0.673194 0.000536901 0.0025 0.546565 0.429294 1.9636 0.00914805 35 4 1 -7.33648e-10 
1.41409 -0.673204 0.00082572 0.0025 0.546565 0.429292 1.96359 0.00914804 36 3 1 -1.58614e-09 
1.41867 -0.673214 0.00115313 0.0025 0.546565 0.42929 1.96358 0.00914805 37 4 1 6.20815e-10 
1.42324 -0.673223 0.00148623 0.0025 0.546564 0.429287 1.96357 0.00914807 38 4 1 -7.25886e-10 
1.42782 -0.673232 0.00180048 0.0025 0.546561 0.429283 1.96356 0.0091481 39 4 1 -1.50381e-09 
1.43239 -0.673241 0.00208409 0.0025 0.546559 0.429278 1.96355 0.00914815 40 4 1 1.63245e-11 
1.43696 -0.67325 0.00233861 0.0025 0.546555 0.429272 1.96354 0.00914821 41 4 1 -1.81624e-10 
1.44154 -0.67326 0.00257539 0.0025 0.546551 0.429266 1.96352 0.00914828 42 4 1 -1.2024e-09 
1.44611 -0.67327 0.00280821 0.0025 0.546546 0.429259 1.96351 0.00914836 43 4 1 -5.68727e-10 
1.45069 -0.673281 0.00304633 0.0025 0.54654 0.429252 1.96349 0.00914846 44 4 1 3.93994e-10 
1.45526 -0.673293 0.00329326 0.0025 0.546534 0.429243 1.96348 0.00914856 45 4 1 -9.69308e-10 
1.45984 -0.673307 0.00355273 0.0025 0.546527 0.429234 1.96346 0.00914868 46 4 1 -1.36445e-09 
1.46441 -0.673321 0.00383567 0.0025 0.546519 0.429225 1.96345 0.00914881 47 4 1 -1.30883e-10 
1.46898 -0.673337 0.00415913 0.0025 0.546511 0.429214 1.96343 0.00914895 48 4 1 -5.65439e-10 
1.47356 -0.673355 0.00453579 0.0025 0.546501 0.429203 1.96341 0.00914911 49 4 1 -1.59841e-09 
1.47813 -0.673375 0.00496397 0.0025 0.546491 0.42919 1.96339 0.00914928 50 4 1 -1.42922e-09 
1.48271 -0.673397 0.00543163 0.0025 0.54648 0.429177 1.96337 0.00914947 51 4 1 -6.1972e-10 
1.48728 -0.673421 0.00593544 0.0025 0.546467 0.429162 1.96335 0.00914968 52 4 1 -1.47928e-09 
1.49186 -0.673447 0.00649789 0.0025 0.546453 0.429145 1.96332 0.00914992 53 4 1 -2.42541e-09 
1.49643 -0.673477 0.00715947 0.0025 0.546437 0.429127 1.9633 0.00915018 54 4 1 -1.86702e-09 
-0.498992 -0.673511 0.00794461 0.0025 0.54642 0.429107 1.96327 0.00915047 55 4 1 -1.59647e-09 
-0.494416 -0.673548 0.00883566 0.0025 0.546401 0.429085 1.96323 0.0091508 56 4 1 -2.92844e-09 
-0.489841 -0.673589 0.00979789 0.0025 0.546379 0.42906 1.9632 0.00915116 57 4 1 -3.57898e-09 
-0.485265 -0.673635 0.0108477 0.0025 0.546355 0.429033 1.96316 0.00915156 58 4 1 -2.68924e-09 
-0.480689 -0.673688 0.012084 0.0025 0.546328 0.429002 1.96312 0.00915202 59 4 1 -3.51638e-09 
-0.476113 -0.673746 0.0136151 0.0025 0.546297 0.428968 1.96307 0.00915252 60 4 1 -4.96028e-09 
-0.471537 -0.673812 0.0154359 0.0025 0.546263 0.42893 1.96302 0.0091531 61 4 1 -5.44146e-09 
-0.46696 -0.673884 0.0174055 0.0025 0.546225 0.428886 1.96296 0.00915375 62 4 1 -5.12663e-09 
-0.462383 -0.673964 0.0193731 0.0025 0.546181 0.428838 1.96289 0.00915447 63 4 1 -5.46157e-09 
-0.457806 -0.674054 0.0213179 0.0025 0.546133 0.428784 1.96282 0.00915528 64 4 1 -5.77668e-09 
-0.453228 -0.674154 0.0233544 0.0025 0.54608 0.428725 1.96274 0.00915617 65 4 1 -5.39219e-09 
-0.448649 -0.674265 0.0255924 0.0025 0.546022 0.428661 1.96266 0.00915714 66 4 1 -5.36409e-09 
-0.444071 -0.674385 0.0279605 0.0025 0.54596 0.428592 1.96256 0.00915818 67 4 1 -5.28405e-09 
-0.439491 -0.674512 0.0301514 0.0025 0.545893 0.428518 1.96246 0.00915931 68 4 1 -4.16805e-09 
-0.434911 -0.674646 0.031794 0.0025 0.545822 0.42844 1.96236 0.00916049 69 4 1 -1.69202e-09 
-0.430331 -0.674782 0.0325628 0.0025 0.54575 0.42836 1.96225 0.00916171 70 4 1 1.34351e-09 
-0.42575 -0.674919 0.0319873 0.0025 0.545678 0.428281 1.96215 0.00916291 71 4 1 5.44991e-09 
-0.421168 -0.675052 0.0298217 0.0025 0.545611 0.428206 1.96205 0.00916404 72 4 1 1.0226e-08 
-0.416586 -0.675175 0.0265472 0.0025 0.545552 0.428141 1.96196 0.00916503 73 4 1 1.38694e-08 
-0.412003 -0.675278 0.0221437 0.0025 0.545504 0.428089 1.96189 0.00916583 74 4 1 1.83018e-08 
-0.40742 -0.675352 0.0153965 0.0025 0.545472 0.428053 1.96184 0.00916637 75 4 1 2.27663e-08 
-0.402836 -0.675386 0.00659201 0.0025 0.545458 0.428037 1.96182 0.0091666 76 5 1 2.31263e-08 
-0.398253 -0.675382 0.000845205 0.0025 0.545464 0.428045 1.96183 0.0091665 77 4 1 5.70875e-08 
-0.39367 -0.67535 -0.0258393 0.0025 0.54552 0.428111 1.9619 0.00916557 78 4 1 2.03396e-07 
-0.389088 -0.674964 -0.148606 0.0025 0.545741 0.428358 1.96222 0.00916186 79 4 1 3.28495e-07 
-0.384508 -0.674029 -0.266494 0.0025 0.546224 0.428889 1.96291 0.00915376 80 4 1 3.57826e-07 
-0.379934 -0.672635 -0.374935 0.0025 0.546982 0.429727 1.964 0.00914107 81 4 1 5.21092e-07 
-0.375367 -0.670555 -0.585273 0.0025 0.548118 0.430986 1.96563 0.00912212 82 4 1 8.38055e-07 
-0.370812 -0.667355 -0.897492 0.0025 0.549824 0.43287 1.96807 0.00909382 83 4 1 1.07354e-06 
-0.366273 -0.662796 -1.20466 0.0025 0.552186 0.435471 1.97145 0.00905492 84 4 1 1.08701e-06 
-0.361757 -0.657159 -1.41489 0.0025 0.55511 0.438695 1.97562 0.00900722 85 4 1 9.95235e-07 
-0.357266 -0.650813 -1.5551 0.0025 0.558433 0.442371 1.98034 0.00895363 86 4 1 9.50172e-07 
-0.352803 -0.643998 -1.66409 0.0025 0.562049 0.446385 1.98546 0.00889603 87 4 1 1.00273e-06 
-0.34837 -0.636747 -1.78944 0.0025 0.56593 0.450709 1.99093 0.00883501 88 4 1 1.13375e-06 
-0.343968 -0.62899 -1.93963 0.0025 0.570105 0.455371 1.99679 0.00877031 89 4 1 1.23397e-06 
-0.339599 -0.620711 -2.0736 0.0025 0.574575 0.460376 2.00304 0.00870208 90 4 1 1.2861e-06 
-0.335266 -0.611985 -2.1974 0.0025 0.579309 0.465691 2.00962 0.00863098 91 4 1 1.27563e-06 
-0.330968 -0.602927 -2.27543 0.0025 0.584244 0.471251 2.01645 0.00855807 92 4 1 1.20216e-06 
-0.326707 -0.593733 -2.31584 0.0025 0.589295 0.476961 2.02341 0.00848471 93 4 1 1.11267e-06 
-0.322483 -0.584523 -2.32361 0.0025 0.594387 0.482738 2.03038 0.00841202 94 4 1 1.0167e-06 
-0.318295 -0.575447 -2.30645 0.0025 0.599459 0.488513 2.03729 0.00834085 95 4 1 9.43112e-07 
-0.314142 -0.56654 -2.28411 0.0025 0.604479 0.494248 2.0441 0.00827159 96 4 1 9.09206e-07 
-0.310023 -0.55778 -2.27162 0.0025 0.609443 0.499939 2.0508 0.00820421 97 4 1 8.57519e-07 
-0.305938 -0.549191 -2.23789 0.0025 0.614342 0.505573 2.05737 0.00813879 98 4 1 8.0467e-07 
-0.301885 -0.540795 -2.21038 0.0025 0.619163 0.511137 2.06382 0.00807541 99 4 1 7.88424e-07 
-0.297862 -0.532568 -2.19288 0.0025 0.623921 0.516645 2.07015 0.00801383 100 4 1 7.68354e-07 
-0.293871 -0.524468 -2.17363 0.0025 0.628623 0.522104 2.07637 0.00795389 101 4 1 7.38899e-07 
-0.289908 -0.516531 -2.15231 0.0025 0.63327 0.527515 2.0825 0.00789553 102 4 1 7.24891e-07 
-0.285975 -0.508713 -2.14115 0.0025 0.637869 0.532887 2.08853 0.0078386 103 4 1 7.25785e-07 
-0.28207 -0.500993 -2.13724 0.0025 0.642438 0.538238 2.0945 0.00778285 104 4 1 7.124e-07 
-0.278192 -0.493372 -2.12535 0.0025 0.646981 0.543575 2.10041 0.0077282 105 4 1 7.31497e-07 
-0.274341 -0.485803 -2.14538 0.0025 0.65152 0.548923 2.1063 0.00767436 106 4 1 7.63954e-07 
-0.270518 -0.478203 -2.16629 0.0025 0.656084 0.554314 2.11219 0.00762097 107 4 1 7.55801e-07 
-0.26672 -0.47064 -2.17395 0.0025 0.66067 0.559747 2.11808 0.00756807 108 4 1 7.87162e-07 
-0.262949 -0.463053 -2.21618 0.0025 0.665299 0.565247 2.124 0.00751542 109 4 1 8.50301e-07 
-0.259205 -0.455327 -2.27372 0.0025 0.670009 0.570857 2.13 0.00746258 110 4 1 8.45755e-07 
-0.255487 -0.447556 -2.29791 0.0025 0.674789 0.576566 2.13607 0.00740972 111 4 1 8.36155e-07 
-0.251795 -0.439744 -2.33395 0.0025 0.679622 0.582356 2.14218 0.00735703 112 4 1 8.49334e-07 
-0.24813 -0.431897 -2.36621 0.0025 0.684512 0.588229 2.14833 0.00730448 113 4 1 8.55808e-07 
-0.24449 -0.423991 -2.40349 0.0025 0.689455 0.594184 2.15452 0.0072521 114 4 1 8.35192e-07 
-0.240877 -0.416069 -2.41471 0.0025 0.694435 0.6002 2.16073 0.0072001 115 4 1 8.03683e-07 
-0.23729 -0.408185 -2.42412 0.0025 0.699426 0.606248 2.16693 0.00714872 116 4 1 8.13009e-07 
-0.233729 -0.400309 -2.45152 0.0025 0.704437 0.612337 2.17313 0.00709786 117 4 1 7.83308e-07 
-0.230192 -0.392465 -2.4408 0.0025 0.709452 0.618447 2.1793 0.00704769 118 4 1 7.49196e-07 
-0.226681 -0.384717 -2.44261 0.0025 0.71445 0.624557 2.18543 0.00699839 119 4 1 7.683e-07 
-0.223194 -0.377 -2.46285 0.0025 0.719454 0.630688 2.19154 0.00694972 120 4 1 7.58402e-07 
-0.219731 -0.369287 -2.46425 0.0025 0.724461 0.636842 2.19763 0.00690168 121 4 1 7.23953e-07 
-0.216292 -0.36167 -2.45763 0.0025 0.729454 0.642995 2.20367 0.00685444 122 4 1 7.1938e-07 
-0.212876 -0.35411 -2.46553 0.0025 0.734436 0.649151 2.20968 0.00680795 123 4 1 7.16178e-07 
-0.209484 -0.346595 -2.46784 0.0025 0.739413 0.655318 2.21566 0.00676212 124 4 1 7.10289e-07 
-0.206114 -0.339119 -2.47864 0.0025 0.744387 0.661498 2.22161 0.00671693 125 4 1 6.90028e-07 
-0.202767 -0.331689 -2.47008 0.0025 0.74935 0.667679 2.22752 0.00667245 126 4 1 6.51993e-07 
-0.199442 -0.324377 -2.45159 0.0025 0.754283 0.673842 2.23337 0.00662881 127 4 1 6.87601e-07 
-0.196138 -0.317083 -2.49066 0.0025 0.759219 0.680024 2.23921 0.00658571 128 4 1 7.0166e-07 
-0.192856 -0.309776 -2.49696 0.0025 0.764177 0.686247 2.24504 0.00654299 129 4 1 6.44886e-07 
-0.189595 -0.302537 -2.47928 0.0025 0.769115 0.692461 2.25083 0.00650098 130 4 1 6.09133e-07 
-0.186355 -0.295425 -2.45887 0.0025 0.774015 0.698648 2.25656 0.00645982 131 4 1 6.56546e-07 
-0.183135 -0.288328 -2.50466 0.0025 0.778922 0.704858 2.26227 0.00641913 132 4 1 6.73851e-07 
-0.179936 -0.281195 -2.51223 0.0025 0.783855 0.711112 2.26799 0.00637873 133 4 1 5.97002e-07 
-0.176756 -0.274168 -2.47751 0.0025 0.788757 0.717346 2.27365 0.00633908 134 4 1 5.75239e-07 
-0.173597 -0.267242 -2.47236 0.0025 0.793621 0.723548 2.27925 0.00630024 135 4 1 6.18487e-07 
-0.170456 -0.260343 -2.49958 0.0025 0.798489 0.72977 2.28483 0.00626183 136 4 1 6.38619e-07 
-0.167335 -0.25342 -2.52183 0.0025 0.803383 0.736037 2.29042 0.00622369 137 4 1 6.03061e-07 
-0.164232 -0.246514 -2.51237 0.0025 0.808275 0.742318 2.29599 0.00618601 138 4 1 5.50425e-07 
-0.161149 -0.239731 -2.48411 0.0025 0.81313 0.748569 2.3015 0.00614908 139 4 1 5.57673e-07 
-0.158083 -0.233018 -2.49517 0.0025 0.817963 0.754806 2.30696 0.00611275 140 4 1 5.97286e-07 
-0.155036 -0.226309 -2.52256 0.0025 0.822812 0.761078 2.31242 0.00607672 141 4 1 5.93465e-07 
-0.152006 -0.219595 -2.53284 0.0025 0.827677 0.767384 2.31788 0.006041 142 4 1 5.44391e-07 
-0.148995 -0.212922 -2.50967 0.0025 0.832522 0.773678 2.32329 0.00600585 143 4 1 4.97544e-07 
-0.146001 -0.206383 -2.47732 0.0025 0.837317 0.779925 2.32864 0.00597146 144 4 1 5.33264e-07 
-0.143023 -0.199891 -2.50667 0.0025 0.8421 0.786172 2.33395 0.00593754 145 4 1 5.80875e-07 
-0.140063 -0.193372 -2.53754 0.0025 0.846917 0.792476 2.33928 0.00590376 146 4 1 5.83365e-07 
-0.137119 -0.186795 -2.56929 0.0025 0.851768 0.798834 2.34463 0.00587014 147 4 1 4.95637e-07 
-0.134193 -0.180328 -2.50284 0.0025 0.856584 0.805162 2.34992 0.00583714 148 4 1 4.35611e-07 
-0.131282 -0.174015 -2.47335 0.0025 0.861323 0.811408 2.35511 0.00580502 149 4 1 5.12083e-07 
-0.128388 -0.167736 -2.5153 0.0025 0.866062 0.817668 2.36028 0.00577326 150 4 1 5.92699e-07 
-0.125509 -0.161363 -2.58641 0.0025 0.87087 0.824028 2.36552 0.00574139 151 4 1 5.40874e-07 
-0.122646 -0.154931 -2.56494 0.0025 0.8757 0.830429 2.37076 0.00570972 152 4 1 4.04807e-07 
-0.119799 -0.148719 -2.47625 0.0025 0.880443 0.836731 2.37589 0.00567896 153 4 1 3.86926e-07 
-0.116967 -0.142677 -2.44955 0.0025 0.885097 0.842935 2.3809 0.0056491 154 4 1 5.2099e-07 
-0.11415 -0.136601 -2.54126 0.0025 0.889789 0.849202 2.38594 0.00561931 155 4 1 6.27906e-07 
-0.111348 -0.130322 -2.6421 0.0025 0.894605 0.855639 2.3911 0.00558906 156 4 1 4.98371e-07 
-0.108561 -0.124034 -2.56738 0.0025 0.899429 0.862099 2.39625 0.00555908 157 4 1 3.2764e-07 
-0.105789 -0.118028 -2.46072 0.0025 0.904118 0.868397 2.40124 0.00553025 158 4 1 3.40966e-07 
-0.103031 -0.11221 -2.4305 0.0025 0.908703 0.874576 2.40609 0.00550235 159 4 1 5.34589e-07 
-0.100286 -0.106316 -2.5812 0.0025 0.913361 0.880864 2.41102 0.00547428 160 4 1 6.21883e-07 
-0.0975563 -0.100134 -2.65681 0.0025 0.918166 0.887351 2.41609 0.00544564 161 4 1 4.38478e-07 
-0.0948407 -0.0940528 -2.56329 0.0025 0.922946 0.893818 2.42112 0.00541743 162 4 1 2.51184e-07 
-0.0921389 -0.0882643 -2.4131 0.0025 0.927548 0.900064 2.42593 0.00539056 163 4 1 2.98155e-07 
-0.0894501 -0.0827373 -2.40975 0.0025 0.932033 0.906172 2.43061 0.00536462 164 4 1 5.27454e-07 
-0.0867742 -0.0770047 -2.57052 0.0025 0.936618 0.912424 2.43539 0.00533835 165 4 1 6.13371e-07 
-0.0841117 -0.0710587 -2.66655 0.0025 0.941372 0.918909 2.44033 0.00531139 166 4 1 4.63325e-07 
-0.0814628 -0.0650384 -2.61107 0.0025 0.946145 0.925427 2.44528 0.0052846 167 4 1 1.77863e-07 
-0.0788271 -0.0594637 -2.35556 0.0025 0.9507 0.931674 2.44997 0.00525928 168 4 1 3.1989e-07 
-0.0762035 -0.0540858 -2.50722 0.0025 0.95516 0.937809 2.45456 0.00523472 169 4 1 4.91768e-07 
-0.0735923 -0.04839 -2.51287 0.0025 0.959709 0.944056 2.45924 0.00520991 170 4 1 2.63129e-07 
-0.0709935 -0.0430662 -2.35334 0.0025 0.964174 0.950223 2.46379 0.00518578 171 4 1 6.49122e-07 
-0.0684065 -0.03744 -2.84898 0.0025 0.968838 0.956673 2.46857 0.00516082 172 4 1 6.32294e-07 
-0.0658327 -0.0311673 -2.70784 0.0025 0.973675 0.96332 2.47351 0.00513518 173 4 1 -5.4613e-07 
-0.0632713 -0.0264318 -1.62206 0.0025 0.97772 0.968934 2.47758 0.00511394 174 4 1 -2.05494e-08 
-0.0607187 -0.0225676 -2.18978 0.0025 0.98145 0.974187 2.48133 0.0050945 175 4 1 1.74131e-06 
-0.0581768 -0.0162965 -3.58085 0.0025 0.98639 0.981037 2.48637 0.00506899 176 4 1 6.78601e-07 
-0.0556497 -0.00929611 -2.68206 0.0025 0.991587 0.988181 2.49164 0.00504242 177 4 1 -1.64474e-06 
-0.0531343 -0.00569269 -0.76743 0.0025 0.994986 0.992953 2.49499 0.00502519 178 4 1 -3.51986e-07 
-0.0506245 -0.0033633 -1.75151 0.0025 0.997793 0.997001 2.49774 0.00501106 179 4 1 2.58761e-06 
-0.0481232 0.00287091 -4.10379 0.0025 1.00267 1.00381 2.5027 0.00498669 180 4 1 1.16897e-06 
-0.0456377 0.0107561 -3.02826 0.0025 1.00828 1.01152 2.50837 0.00495895 181 4 1 -2.59426e-06 
-0.0431643 0.0139006 -0.190463 0.0025 1.01118 1.0156 2.51118 0.0049447 182 4 1 -1.63475e-06 
-0.040693 0.0136146 -0.0771891 0.0025 1.0122 1.0172 2.5121 0.00493972 183 4 1 2.20683e-06 
-0.0382245 0.0174511 -3.23296 0.0025 1.01511 1.02129 2.51507 0.00492555 184 4 1 9.69621e-07 
-0.0357675 0.0231407 -1.86332 0.0025 1.01894 1.02653 2.51892 0.00490706 185 4 1 -2.25416e-06 
-0.0333175 0.0244169 0.0924872 0.0025 1.02038 1.02857 2.52031 0.00490013 186 3 1 -1.54797e-06 
-0.0308673 0.0236717 0.494443 0.0025 1.0199 1.02796 2.51981 0.00490243 187 4 1 -3.9932e-07 
-0.028415 0.0223967 0.62808 0.0025 1.01888 1.02654 2.5188 0.00490733 188 4 1 -1.1457e-07 
-0.02596 0.0209236 0.676944 0.0025 1.01769 1.02485 2.51761 0.00491309 189 4 1 -4.43897e-08 
-0.0235019 0.0193165 0.712877 0.0025 1.01641 1.02305 2.51634 0.00491928 190 4 1 -2.37987e-08 
-0.0210407 0.0175753 0.744869 0.0025 1.01507 1.02116 2.51501 0.00492579 191 4 1 -2.60868e-09 
-0.0185761 0.0157 0.76524 0.0025 1.01368 1.01921 2.51364 0.00493251 192 4 1 3.11136e-08 
-0.0161082 0.0137066 0.762428 0.0025 1.0123 1.01726 2.51226 0.00493926 193 4 1 7.53679e-08 
-0.0136369 0.0116271 0.727344 0.0025 1.01096 1.01539 2.51093 0.00494578 194 4 1 1.23177e-07 
-0.0111624 0.00949987 0.656114 0.0025 1.00974 1.01367 2.50971 0.00495179 195 4 1 1.67424e-07 
-0.0086851 0.00735999 0.550132 0.0025 1.00868 1.01218 2.50866 0.00495698 196 4 1 2.03254e-07 
-0.00620543 0.00523187 0.414764 0.0025 1.00784 1.01101 2.50782 0.00496111 197 4 1 2.28663e-07 
-0.00372399 0.00312593 0.257646 0.0025 1.00726 1.01019 2.50724 0.00496397 198 4 1 2.43865e-07 
-0.00124145 0.00103945 0.0873475 0.0025 1.00696 1.00977 2.50694 0.00496544 199 4 1 2.49955e-07 
0.00124145 -0.00103945 -0.0873475 0.0025 1.00696 1.00977 2.50694 0.00496544 200 4 1 2.49955e-07 
0.00372399 -0.00312593 -0.257646 0.0025 1.00726 1.01019 2.50724 0.00496397 201 4 1 2.43865e-07 
0.00620543 -0.00523187 -0.414764 0.0025 1.00784 1.01101 2.50782 0.00496111 202 4 1 2.28663e-07 
0.0086851 -0.00735999 -0.550132 0.0025 1.00868 1.01218 2.50866 0.00495698 203 4 1 2.03254e-07 
0.0111624 -0.00949987 -0.656114 0.0025 1.00974 1.01367 2.50971 0.00495179 204 4 1 1.67424e-07 
0.0136369 -0.0116271 -0.727344 0.0025 1.01096 1.01539 2.51093 0.00494578 205 4 1 1.23177e-07 
0.0161082 -0.0137066 -0.762428 0.0025 1.0123 1.01726 2.51226 0.00493926 206 4 1 7.53679e-08 
0.0185761 -0.0157 -0.76524 0.0025 1.01368 1.01921 2.51364 0.00493251 207 4 1 3.11136e-08 
0.0210407 -0.0175753 -0.744869 0.0025 1.01507 1.02116 2.51501 0.00492579 208 4 1 -2.60868e-09 
0.0235019 -0.0193165 -0.712877 0.0025 1.01641 1.02305 2.51634 0.00491928 209 4 1 -2.37987e-08 
0.02596 -0.0209236 -0.676944 0.0025 1.01769 1.02485 2.51761 0.00491309 210 4 1 -4.43897e-08 
0.028415 -0.0223967 -0.62808 0.0025 1.01888 1.02654 2.5188 0.00490733 211 4 1 -1.1457e-07 
