# Time [s]: 0.378952
# Columns: pos [m], vel [m/s], acc [m/s^2], mass [kg], dens [kg/m^3], pres [Pa], ene [J/kg], sml [m], id, neighbor, alpha, gradh, ...additional?
1.24716 -0.67308 0.000128871 0.0025 0.511056 0.432733 2.15251 0.00978366 0 4 1 -0.000134225 
1.25194 -0.673081 0.00013442 0.0025 0.536914 0.426196 1.95005 0.00931248 1 4 1 0.000179253 
1.25647 -0.673081 0.000140373 0.0025 0.548244 0.430866 1.96851 0.00912003 2 3 1 -1.90585e-05 
1.26106 -0.673082 0.000147086 0.0025 0.545979 0.429202 1.96465 0.00915786 3 5 1 3.48567e-06 
1.26563 -0.673083 0.000154253 0.0025 0.546377 0.429357 1.96459 0.00915119 4 4 1 -1.38694e-07 
1.27021 -0.673084 0.000161588 0.0025 0.546388 0.429327 1.96436 0.00915101 5 4 1 1.4372e-07 
1.27478 -0.673085 0.000169123 0.0025 0.546411 0.429326 1.9643 0.00915062 6 4 1 -3.52008e-09 
1.27936 -0.673086 0.000177429 0.0025 0.546424 0.429323 1.96424 0.0091504 7 4 1 8.22487e-09 
1.28393 -0.673087 0.000187423 0.0025 0.546438 0.429322 1.96418 0.00915016 8 4 1 4.75089e-09 
1.28851 -0.673088 0.000199773 0.0025 0.546451 0.429322 1.96414 0.00914996 9 4 1 5.45817e-09 
1.29308 -0.673089 0.000214276 0.0025 0.546462 0.429321 1.96409 0.00914977 10 4 1 -2.26173e-09 
1.29766 -0.67309 0.000229757 0.0025 0.546473 0.42932 1.96405 0.00914959 11 4 1 4.70466e-09 
1.30223 -0.673092 0.000244689 0.0025 0.546483 0.42932 1.96401 0.00914942 12 4 1 2.82846e-09 
1.30681 -0.673093 0.000258244 0.0025 0.546491 0.429319 1.96398 0.00914927 13 4 1 3.55283e-09 
1.31138 -0.673095 0.00027106 0.0025 0.546499 0.429318 1.96395 0.00914915 14 4 1 2.10383e-09 
1.31596 -0.673097 0.000285113 0.0025 0.546506 0.429318 1.96392 0.00914903 15 4 1 -1.59788e-09 
1.32053 -0.673099 0.000302678 0.0025 0.546513 0.429317 1.96389 0.00914891 16 4 1 4.88214e-09 
1.32511 -0.673101 0.000324984 0.0025 0.546519 0.429316 1.96387 0.00914881 17 4 1 1.45507e-09 
1.32968 -0.673103 0.000351416 0.0025 0.546524 0.429315 1.96384 0.00914873 18 4 1 -1.22505e-09 
1.33425 -0.673105 0.000379749 0.0025 0.546529 0.429314 1.96382 0.00914864 19 4 1 2.66928e-09 
1.33883 -0.673107 0.000407241 0.0025 0.546534 0.429313 1.9638 0.00914857 20 4 1 1.14618e-09 
1.3434 -0.67311 0.000431867 0.0025 0.546538 0.429312 1.96378 0.0091485 21 4 1 1.18038e-09 
1.34798 -0.673112 0.000452859 0.0025 0.546541 0.429311 1.96376 0.00914844 22 4 1 1.0607e-09 
1.35255 -0.673115 0.000470051 0.0025 0.546544 0.42931 1.96375 0.00914839 23 4 1 -1.51895e-10 
1.35713 -0.673118 0.000482148 0.0025 0.546547 0.429308 1.96373 0.00914834 24 4 1 1.52014e-09 
1.3617 -0.673122 0.000484798 0.0025 0.54655 0.429307 1.96372 0.0091483 25 4 1 8.14459e-10 
1.36627 -0.673126 0.000470039 0.0025 0.546552 0.429306 1.9637 0.00914826 26 4 1 -2.27846e-10 
1.37085 -0.67313 0.000428675 0.0025 0.546554 0.429305 1.96369 0.00914823 27 4 1 1.43099e-09 
1.37542 -0.673135 0.000355933 0.0025 0.546556 0.429303 1.96367 0.00914819 28 4 1 1.15332e-09 
1.38 -0.673141 0.000258313 0.0025 0.546558 0.429302 1.96366 0.00914816 29 4 1 -4.25344e-10 
1.38457 -0.673148 0.000157434 0.0025 0.54656 0.429302 1.96365 0.00914813 30 4 1 8.39772e-10 
1.38914 -0.673156 8.69309e-05 0.0025 0.546562 0.429301 1.96364 0.00914809 31 4 1 2.20661e-09 
1.39372 -0.673164 8.20901e-05 0.0025 0.546564 0.4293 1.96363 0.00914806 32 4 1 -7.98404e-10 
1.39829 -0.673174 0.0001668 0.0025 0.546566 0.4293 1.96363 0.00914803 33 4 1 -1.00552e-09 
1.40287 -0.673183 0.000344738 0.0025 0.546567 0.429299 1.96362 0.009148 34 4 1 1.69753e-09 
1.40744 -0.673192 0.000599164 0.0025 0.546568 0.429298 1.96361 0.00914799 35 4 1 -8.26391e-10 
1.41201 -0.673201 0.000900307 0.0025 0.546568 0.429296 1.9636 0.00914799 36 3 1 -1.61691e-09 
1.41659 -0.67321 0.00121559 0.0025 0.546568 0.429294 1.96359 0.00914799 37 4 1 6.51344e-10 
1.42116 -0.673218 0.00151831 0.0025 0.546567 0.42929 1.96358 0.00914801 38 4 1 -6.48582e-10 
1.42574 -0.673227 0.00179292 0.0025 0.546565 0.429286 1.96357 0.00914805 39 4 1 -1.4016e-09 
1.43031 -0.673235 0.00203671 0.0025 0.546562 0.429281 1.96355 0.0091481 40 4 1 1.21482e-10 
1.43488 -0.673243 0.00225744 0.0025 0.546558 0.429276 1.96354 0.00914815 41 4 1 -8.81176e-11 
1.43946 -0.673252 0.00246733 0.0025 0.546554 0.42927 1.96353 0.00914822 42 4 1 -1.12298e-09 
1.44403 -0.673262 0.00267634 0.0025 0.54655 0.429263 1.96352 0.0091483 43 4 1 -4.95945e-10 
1.44861 -0.673272 0.0028894 0.0025 0.546544 0.429256 1.9635 0.00914839 44 4 1 4.68025e-10 
1.45318 -0.673284 0.00311004 0.0025 0.546538 0.429248 1.96349 0.00914849 45 4 1 -8.94712e-10 
1.45776 -0.673296 0.00334649 0.0025 0.546532 0.42924 1.96347 0.0091486 46 4 1 -1.29723e-09 
1.46233 -0.67331 0.00361264 0.0025 0.546525 0.429231 1.96346 0.00914872 47 4 1 -7.39713e-11 
1.4669 -0.673325 0.00392082 0.0025 0.546517 0.429221 1.96344 0.00914885 48 4 1 -5.05851e-10 
1.47148 -0.673342 0.00427243 0.0025 0.546508 0.42921 1.96342 0.009149 49 4 1 -1.51251e-09 
1.47605 -0.67336 0.00465819 0.0025 0.546498 0.429198 1.9634 0.00914916 50 4 1 -1.30413e-09 
1.48063 -0.67338 0.00507195 0.0025 0.546488 0.429186 1.96338 0.00914933 51 4 1 -4.70431e-10 
1.4852 -0.673403 0.00552692 0.0025 0.546476 0.429172 1.96336 0.00914953 52 4 1 -1.33762e-09 
1.48978 -0.673428 0.00605461 0.0025 0.546463 0.429156 1.96334 0.00914975 53 4 1 -2.3021e-09 
1.49435 -0.673456 0.00668024 0.0025 0.546449 0.42914 1.96331 0.00914999 54 4 1 -1.72468e-09 
1.49893 -0.673487 0.0073974 0.0025 0.546433 0.429121 1.96328 0.00915026 55 4 1 -1.37755e-09 
-0.496498 -0.673521 0.00817851 0.0025 0.546415 0.4291 1.96325 0.00915056 56 4 1 -2.62873e-09 
-0.491922 -0.67356 0.00902629 0.0025 0.546395 0.429077 1.96322 0.0091509 57 4 1 -3.28363e-09 
-0.487347 -0.673603 0.0100118 0.0025 0.546372 0.429052 1.96319 0.00915127 58 4 1 -2.49611e-09 
-0.482771 -0.673652 0.0112343 0.0025 0.546347 0.429024 1.96315 0.00915169 59 4 1 -3.40303e-09 
-0.478195 -0.673706 0.0127227 0.0025 0.546319 0.428992 1.9631 0.00915216 60 4 1 -4.76354e-09 
-0.473619 -0.673765 0.0143885 0.0025 0.546287 0.428956 1.96305 0.00915269 61 4 1 -5.02026e-09 
-0.469042 -0.673832 0.0161046 0.0025 0.546252 0.428916 1.963 0.00915329 62 4 1 -4.5449e-09 
-0.464466 -0.673906 0.0178351 0.0025 0.546211 0.428871 1.96294 0.00915397 63 4 1 -4.97783e-09 
-0.459888 -0.67399 0.019678 0.0025 0.546167 0.428821 1.96287 0.00915472 64 4 1 -5.64459e-09 
-0.455311 -0.674084 0.0217719 0.0025 0.546117 0.428767 1.9628 0.00915554 65 4 1 -5.66643e-09 
-0.450733 -0.674188 0.0241419 0.0025 0.546063 0.428706 1.96271 0.00915645 66 4 1 -5.8872e-09 
-0.446154 -0.6743 0.0266173 0.0025 0.546004 0.428641 1.96263 0.00915744 67 4 1 -5.89672e-09 
-0.441575 -0.674421 0.0289118 0.0025 0.54594 0.428569 1.96253 0.00915852 68 4 1 -4.91796e-09 
-0.436996 -0.674549 0.0307368 0.0025 0.545871 0.428493 1.96243 0.00915967 69 4 1 -2.6932e-09 
-0.432416 -0.674683 0.031755 0.0025 0.5458 0.428415 1.96232 0.00916087 70 4 1 -1.53753e-11 
-0.427835 -0.67482 0.0317051 0.0025 0.545728 0.428336 1.96222 0.00916207 71 4 1 3.16512e-09 
-0.423254 -0.674958 0.0307644 0.0025 0.545659 0.428259 1.96212 0.00916323 72 4 1 6.62899e-09 
-0.418672 -0.675089 0.0289688 0.0025 0.545596 0.428189 1.96202 0.0091643 73 4 1 1.00425e-08 
-0.414089 -0.675204 0.0256695 0.0025 0.54554 0.428127 1.96194 0.00916523 74 4 1 1.42536e-08 
-0.409507 -0.675296 0.0206106 0.0025 0.545496 0.428079 1.96188 0.00916597 75 4 1 2.01559e-08 
-0.404923 -0.675356 0.0119644 0.0025 0.545469 0.428049 1.96183 0.00916643 76 4 1 2.67843e-08 
-0.40034 -0.675382 0.00121932 0.0025 0.545464 0.428042 1.96182 0.00916651 77 5 1 1.98685e-08 
-0.395757 -0.675369 0.00465253 0.0025 0.545476 0.428058 1.96184 0.0091663 78 4 1 8.92337e-08 
-0.391174 -0.675276 -0.0561777 0.0025 0.545564 0.428161 1.96196 0.00916483 79 4 1 2.56686e-07 
-0.386592 -0.674739 -0.188569 0.0025 0.545859 0.428488 1.96239 0.00915987 80 4 1 3.36791e-07 
-0.382014 -0.673659 -0.294001 0.0025 0.546421 0.429106 1.96319 0.00915045 81 4 1 3.85751e-07 
-0.377442 -0.672101 -0.426632 0.0025 0.547275 0.430051 1.96442 0.00913618 82 4 1 5.94482e-07 
-0.372878 -0.669754 -0.660736 0.0025 0.548552 0.431465 1.96625 0.00911491 83 4 1 9.07076e-07 
-0.368327 -0.666189 -0.983953 0.0025 0.55043 0.433537 1.96893 0.00908381 84 4 1 1.08914e-06 
-0.363794 -0.66131 -1.26463 0.0025 0.552949 0.436312 1.97253 0.00904242 85 4 1 1.06135e-06 
-0.359284 -0.655471 -1.45556 0.0025 0.555986 0.439663 1.97686 0.00899304 86 4 1 9.70196e-07 
-0.354801 -0.649007 -1.57917 0.0025 0.559384 0.443425 1.98168 0.00893841 87 4 1 9.41923e-07 
-0.350346 -0.642113 -1.68753 0.0025 0.563054 0.447503 1.98687 0.00888014 88 4 1 1.01564e-06 
-0.345921 -0.63479 -1.81505 0.0025 0.566988 0.451888 1.99241 0.00881853 89 4 1 1.13899e-06 
-0.341527 -0.626941 -1.95858 0.0025 0.571208 0.456604 1.99833 0.00875338 90 4 1 1.22934e-06 
-0.337167 -0.618612 -2.08902 0.0025 0.575712 0.46165 2.00462 0.0086849 91 4 1 1.27017e-06 
-0.332842 -0.609853 -2.20268 0.0025 0.580463 0.466989 2.01122 0.00861382 92 4 1 1.24115e-06 
-0.328553 -0.600819 -2.26795 0.0025 0.585393 0.472548 2.01804 0.00854127 93 4 1 1.17095e-06 
-0.324301 -0.591683 -2.30661 0.0025 0.590423 0.478238 2.02495 0.00846851 94 4 1 1.07806e-06 
-0.320084 -0.582572 -2.30391 0.0025 0.59548 0.483979 2.03187 0.00839659 95 4 1 9.77174e-07 
-0.315904 -0.573593 -2.28262 0.0025 0.600503 0.489704 2.03871 0.00832635 96 4 1 9.19991e-07 
-0.311758 -0.564791 -2.26425 0.0025 0.605472 0.495385 2.04544 0.00825802 97 4 1 8.85451e-07 
-0.307646 -0.556121 -2.24694 0.0025 0.610385 0.501021 2.05206 0.00819155 98 4 1 8.35815e-07 
-0.303566 -0.547634 -2.21713 0.0025 0.615232 0.506599 2.05857 0.00812702 99 4 1 7.87936e-07 
-0.299519 -0.539335 -2.18808 0.0025 0.620005 0.51211 2.06494 0.00806446 100 4 1 7.7538e-07 
-0.295502 -0.531191 -2.17565 0.0025 0.624717 0.517567 2.0712 0.00800363 101 4 1 7.5322e-07 
-0.291515 -0.52318 -2.15242 0.0025 0.629375 0.522978 2.07736 0.00794439 102 4 1 7.24845e-07 
-0.287557 -0.515319 -2.13575 0.0025 0.63398 0.528343 2.08343 0.00788669 103 4 1 7.18042e-07 
-0.283628 -0.507583 -2.12619 0.0025 0.638542 0.533674 2.08941 0.00783033 104 4 1 7.11734e-07 
-0.279727 -0.499926 -2.11892 0.0025 0.643074 0.538984 2.09533 0.00777515 105 4 1 6.99285e-07 
-0.275853 -0.49237 -2.10931 0.0025 0.64758 0.54428 2.10119 0.00772106 106 4 1 7.29493e-07 
-0.272006 -0.484858 -2.13603 0.0025 0.652089 0.549594 2.10703 0.00766767 107 4 1 7.52703e-07 
-0.268185 -0.477316 -2.14931 0.0025 0.656623 0.554951 2.11288 0.00761472 108 4 1 7.38291e-07 
-0.264391 -0.469798 -2.15719 0.0025 0.661174 0.560345 2.11872 0.0075623 109 4 1 7.87836e-07 
-0.260623 -0.462263 -2.20961 0.0025 0.665775 0.565814 2.12461 0.00751004 110 4 1 8.40238e-07 
-0.256881 -0.454593 -2.25727 0.0025 0.670459 0.571393 2.13058 0.00745757 111 4 1 8.32223e-07 
-0.253165 -0.446884 -2.28706 0.0025 0.67521 0.577068 2.1366 0.00740511 112 4 1 8.22578e-07 
-0.249475 -0.439126 -2.31542 0.0025 0.68001 0.582821 2.14266 0.00735283 113 4 1 8.30986e-07 
-0.245812 -0.431338 -2.34904 0.0025 0.684862 0.588651 2.14877 0.00730074 114 4 1 8.41663e-07 
-0.242175 -0.423488 -2.38418 0.0025 0.689768 0.594561 2.15491 0.00724882 115 4 1 8.22273e-07 
-0.238563 -0.415629 -2.39734 0.0025 0.694708 0.600531 2.16107 0.00719727 116 4 1 7.92087e-07 
-0.234977 -0.407817 -2.40539 0.0025 0.699662 0.606534 2.16722 0.00714631 117 4 1 7.98683e-07 
-0.231417 -0.4 -2.43225 0.0025 0.704633 0.612575 2.17337 0.00709589 118 4 1 7.71679e-07 
-0.227881 -0.392229 -2.42296 0.0025 0.709609 0.618638 2.17949 0.00704614 119 4 1 7.31763e-07 
-0.22437 -0.384538 -2.41846 0.0025 0.714564 0.624696 2.18557 0.00699727 120 4 1 7.56048e-07 
-0.220884 -0.376882 -2.44492 0.0025 0.719525 0.630777 2.19162 0.00694902 121 4 1 7.51854e-07 
-0.217421 -0.369242 -2.44577 0.0025 0.724495 0.636883 2.19767 0.00690136 122 4 1 7.11002e-07 
-0.213982 -0.361685 -2.43779 0.0025 0.729448 0.642987 2.20366 0.00685449 123 4 1 7.04687e-07 
-0.210567 -0.354182 -2.44379 0.0025 0.734389 0.649092 2.20962 0.00680838 124 4 1 7.03498e-07 
-0.207174 -0.346729 -2.44687 0.0025 0.739324 0.655207 2.21555 0.00676294 125 4 1 7.01815e-07 
-0.203804 -0.339318 -2.45951 0.0025 0.744258 0.661336 2.22145 0.0067181 126 4 1 6.81371e-07 
-0.200456 -0.331937 -2.45117 0.0025 0.749182 0.667469 2.22732 0.00667394 127 4 1 6.41657e-07 
-0.19713 -0.324685 -2.43248 0.0025 0.754077 0.673583 2.23313 0.00663063 128 4 1 6.69969e-07 
-0.193825 -0.31745 -2.46423 0.0025 0.758969 0.679711 2.23891 0.00658788 129 4 1 6.92924e-07 
-0.190542 -0.31021 -2.47917 0.0025 0.763884 0.68588 2.2447 0.00654549 130 4 1 6.45091e-07 
-0.18728 -0.303013 -2.46395 0.0025 0.768788 0.69205 2.25045 0.00650374 131 4 1 5.9785e-07 
-0.184038 -0.295955 -2.43878 0.0025 0.773653 0.69819 2.25614 0.00646285 132 4 1 6.35621e-07 
-0.180817 -0.288925 -2.47652 0.0025 0.778516 0.704343 2.2618 0.00642248 133 4 1 6.64651e-07 
-0.177615 -0.281848 -2.49281 0.0025 0.783405 0.710541 2.26747 0.0063824 134 4 1 6.02251e-07 
-0.174434 -0.27486 -2.46593 0.0025 0.788275 0.716731 2.2731 0.00634296 135 4 1 5.6352e-07 
-0.171272 -0.267981 -2.44925 0.0025 0.793104 0.722887 2.27865 0.00630435 136 4 1 5.93865e-07 
-0.16813 -0.261135 -2.46994 0.0025 0.797925 0.729048 2.28418 0.00626625 137 4 1 6.31627e-07 
-0.165006 -0.25428 -2.50156 0.0025 0.802773 0.735257 2.28972 0.00622841 138 4 1 6.0932e-07 
-0.161901 -0.247424 -2.49974 0.0025 0.807633 0.741494 2.29526 0.00619093 139 4 1 5.50258e-07 
-0.158815 -0.24068 -2.47163 0.0025 0.812462 0.747707 2.30074 0.00615413 140 4 1 5.38274e-07 
-0.155747 -0.234019 -2.46828 0.0025 0.817257 0.753894 2.30616 0.00611802 141 4 1 5.71277e-07 
-0.152697 -0.227361 -2.49007 0.0025 0.822055 0.760099 2.31157 0.00608231 142 4 1 5.89017e-07 
-0.149665 -0.2207 -2.51229 0.0025 0.826874 0.766343 2.31698 0.00604687 143 4 1 5.57093e-07 
-0.14665 -0.214062 -2.50154 0.0025 0.83169 0.772596 2.32236 0.00601186 144 4 1 4.94882e-07 
-0.143653 -0.207553 -2.46069 0.0025 0.836459 0.778805 2.32768 0.00597758 145 4 1 5.08422e-07 
-0.140672 -0.201105 -2.47703 0.0025 0.841201 0.784996 2.33295 0.00594389 146 4 1 5.59217e-07 
-0.137709 -0.194669 -2.50516 0.0025 0.845965 0.791229 2.33822 0.00591041 147 4 1 5.80845e-07 
-0.134762 -0.188147 -2.5471 0.0025 0.85077 0.797525 2.34353 0.00587703 148 4 1 5.1819e-07 
-0.131832 -0.181687 -2.50595 0.0025 0.855565 0.803821 2.3488 0.00584409 149 4 1 4.36318e-07 
-0.128918 -0.17539 -2.45805 0.0025 0.860287 0.81004 2.35398 0.00581202 150 4 1 4.66693e-07 
-0.12602 -0.169168 -2.46992 0.0025 0.864975 0.816231 2.3591 0.00578051 151 4 1 5.66617e-07 
-0.123137 -0.162896 -2.54983 0.0025 0.869718 0.822504 2.36427 0.00574899 152 4 1 5.67946e-07 
-0.120271 -0.156511 -2.56276 0.0025 0.874515 0.828857 2.36947 0.00571746 153 4 1 4.39055e-07 
-0.11742 -0.150263 -2.48814 0.0025 0.879257 0.835153 2.37461 0.00568662 154 4 1 3.69134e-07 
-0.114584 -0.144229 -2.42882 0.0025 0.883896 0.841332 2.37961 0.00565677 155 4 1 4.49485e-07 
-0.111763 -0.138251 -2.47166 0.0025 0.888517 0.847502 2.38457 0.00562735 156 4 1 6.00564e-07 
-0.108957 -0.132097 -2.60027 0.0025 0.893249 0.853827 2.38965 0.00559754 157 4 1 5.59152e-07 
-0.106165 -0.125822 -2.58583 0.0025 0.898051 0.860252 2.39478 0.00556761 158 4 1 3.79769e-07 
-0.103389 -0.119752 -2.48815 0.0025 0.902764 0.866576 2.3998 0.00553855 159 4 1 2.9955e-07 
-0.100627 -0.113926 -2.39611 0.0025 0.907337 0.872732 2.40465 0.00551063 160 4 1 4.38085e-07 
-0.0978783 -0.108172 -2.49279 0.0025 0.911904 0.878896 2.40948 0.00548303 161 4 1 6.09843e-07 
-0.0951437 -0.10213 -2.62153 0.0025 0.916617 0.885259 2.41446 0.00545484 162 4 1 5.26287e-07 
-0.0924234 -0.0960305 -2.59946 0.0025 0.921393 0.891715 2.41948 0.00542657 163 4 1 3.11079e-07 
-0.0897171 -0.0901293 -2.45483 0.0025 0.926042 0.898017 2.42436 0.00539932 164 4 1 2.35959e-07 
-0.0870241 -0.0845974 -2.36248 0.0025 0.930517 0.904105 2.42903 0.00537336 165 4 1 4.21788e-07 
-0.0843437 -0.0790212 -2.48006 0.0025 0.935 0.910217 2.43371 0.00534759 166 4 1 5.81409e-07 
-0.0816765 -0.0732462 -2.59782 0.0025 0.93964 0.916547 2.43853 0.00532119 167 4 1 5.7726e-07 
-0.0790225 -0.0672409 -2.68118 0.0025 0.944407 0.923052 2.44348 0.00529433 168 4 1 2.71086e-07 
-0.0763821 -0.0614571 -2.40841 0.0025 0.949039 0.92939 2.44826 0.00526849 169 4 1 1.74502e-07 
-0.073754 -0.0561787 -2.38142 0.0025 0.953455 0.935464 2.45281 0.00524409 170 4 1 5.03896e-07 
-0.071138 -0.0505827 -2.5777 0.0025 0.957952 0.941643 2.45743 0.00521947 171 4 1 3.18441e-07 
-0.0685345 -0.0450922 -2.32284 0.0025 0.962418 0.94779 2.462 0.00519525 172 4 1 3.41065e-07 
-0.0659427 -0.0399032 -2.51461 0.0025 0.966854 0.953935 2.46653 0.00517141 173 4 1 8.79912e-07 
-0.0633631 -0.0338083 -2.99328 0.0025 0.971675 0.960578 2.47147 0.00514575 174 4 1 5.97497e-08 
-0.0607969 -0.0280294 -2.12941 0.0025 0.976211 0.966822 2.47608 0.00512185 175 4 1 -6.73512e-07 
-0.0582412 -0.0241885 -1.57028 0.0025 0.979851 0.971925 2.47972 0.00510282 176 4 1 8.74743e-07 
-0.0556941 -0.0195386 -2.89117 0.0025 0.983973 0.977703 2.48389 0.00508144 177 4 1 1.74318e-06 
-0.0531597 -0.0124291 -3.53787 0.0025 0.989294 0.985039 2.48933 0.00505411 178 4 1 -5.23062e-07 
-0.0506399 -0.00663195 -1.71046 0.0025 0.993825 0.991293 2.49387 0.00503106 179 4 1 -1.64231e-06 
-0.0481286 -0.00432001 -0.705485 0.0025 0.996555 0.995198 2.49652 0.00501729 180 4 1 1.02101e-06 
-0.0456226 -0.000833498 -2.82886 0.0025 0.999976 1.00007 2.49995 0.00500012 181 4 1 2.70039e-06 
-0.0431285 0.00682858 -4.17758 0.0025 1.00554 1.00776 2.50561 0.00497247 182 4 1 -5.62891e-07 
-0.0406501 0.0131545 -1.66031 0.0025 1.01028 1.0143 2.51035 0.00494913 183 4 1 -2.96019e-06 
-0.0381794 0.0142205 0.537499 0.0025 1.01192 1.01671 2.51186 0.00494108 184 4 1 1.09907e-07 
-0.035709 0.0147503 -1.66864 0.0025 1.0134 1.01891 2.51331 0.0049339 185 4 1 2.4288e-06 
-0.0332454 0.0202619 -3.10707 0.0025 1.01704 1.02393 2.51702 0.00491625 186 4 1 -7.65488e-07 
-0.0307928 0.0239993 -0.665131 0.0025 1.01993 1.02792 2.51989 0.00490229 187 4 1 -2.25144e-06 
-0.0283432 0.0239409 0.264488 0.0025 1.0203 1.0285 2.52021 0.0049005 188 3 1 -8.47692e-07 
-0.0258923 0.0228361 0.538844 0.0025 1.01954 1.02746 2.51945 0.00490416 189 4 1 -2.1688e-07 
-0.023439 0.0213678 0.608088 0.0025 1.01848 1.02598 2.5184 0.00490926 190 4 1 -5.79668e-08 
-0.020983 0.0197112 0.636459 0.0025 1.01733 1.02434 2.51725 0.00491485 191 4 1 -1.06712e-08 
-0.0185241 0.0178917 0.64914 0.0025 1.01612 1.02265 2.51606 0.00492066 192 4 1 1.29501e-08 
-0.0160623 0.0159034 0.651093 0.0025 1.01491 1.02094 2.51486 0.00492655 193 4 1 4.25591e-08 
-0.0135976 0.0137472 0.633113 0.0025 1.01372 1.01926 2.51367 0.00493235 194 4 1 8.2512e-08 
-0.01113 0.0114395 0.586098 0.0025 1.01259 1.01768 2.51255 0.00493783 195 4 1 1.28524e-07 
-0.00865977 0.00900911 0.504777 0.0025 1.01159 1.01628 2.51156 0.0049427 196 4 1 1.73494e-07 
-0.00618729 0.00649 0.389539 0.0025 1.01078 1.01514 2.51075 0.00494666 197 4 1 2.1101e-07 
-0.0037131 0.00391413 0.246102 0.0025 1.01021 1.01434 2.51018 0.00494947 198 4 1 2.36888e-07 
-0.00123782 0.00130785 0.0841745 0.0025 1.00991 1.01392 2.50989 0.00495092 199 4 1 2.49071e-07 
0.00123782 -0.00130785 -0.0841745 0.0025 1.00991 1.01392 2.50989 0.00495092 200 4 1 2.49071e-07 
0.0037131 -0.00391413 -0.246102 0.0025 1.01021 1.01434 2.51018 0.00494947 201 4 1 2.36888e-07 
0.00618729 -0.00649 -0.389539 0.0025 1.01078 1.01514 2.51075 0.00494666 202 4 1 2.1101e-07 
0.00865977 -0.00900911 -0.504777 0.0025 1.01159 1.01628 2.51156 0.0049427 203 4 1 1.73494e-07 
0.01113 -0.0114395 -0.586098 0.0025 1.01259 1.01768 2.51255 0.00493783 204 4 1 1.28524e-07 
0.0135976 -0.0137472 -0.633113 0.0025 1.01372 1.01926 2.51367 0.00493235 205 4 1 8.2512e-08 
0.0160623 -0.0159034 -0.651093 0.0025 1.01491 1.02094 2.51486 0.00492655 206 4 1 4.25591e-08 
0.0185241 -0.0178917 -0.64914 0.0025 1.01612 1.02265 2.51606 0.00492066 207 4 1 1.29501e-08 
0.020983 -0.0197112 -0.636459 0.0025 1.01733 1.02434 2.51725 0.00491485 208 4 1 -1.06712e-08 
0.023439 -0.0213678 -0.608088 0.0025 1.01848 1.02598 2.5184 0.00490926 209 4 1 -5.79668e-08 
0.0258923 -0.0228361 -0.538844 0.0025 1.01954 1.02746 2.51945 0.00490416 210 4 1 -2.1688e-07 
0.0283432 -0.0239409 -0.264488 0.0025 1.0203 1.0285 2.52021 0.0049005 211 3 1 -8.47692e-07 
