# Time [s]: 0.388196
# Columns: pos [m], vel [m/s], acc [m/s^2], mass [kg], dens [kg/m^3], pres [Pa], ene [J/kg], sml [m], id, neighbor, alpha, gradh, ...additional?
1.24093 -0.673079 0.000105953 0.0025 0.511057 0.432734 2.15251 0.00978365 0 4 1 -0.000134225 
1.24571 -0.67308 0.00011058 0.0025 0.536915 0.426197 1.95005 0.00931247 1 4 1 0.000179253 
1.25025 -0.67308 0.000115184 0.0025 0.548245 0.430867 1.96851 0.00912002 2 3 1 -1.90585e-05 
1.25483 -0.673081 0.000119955 0.0025 0.54598 0.429203 1.96466 0.00915785 3 5 1 3.48566e-06 
1.25941 -0.673082 0.000125003 0.0025 0.546378 0.429358 1.96459 0.00915117 4 4 1 -1.38689e-07 
1.26399 -0.673082 0.000130837 0.0025 0.546389 0.429328 1.96436 0.00915099 5 4 1 1.43724e-07 
1.26856 -0.673083 0.000138077 0.0025 0.546412 0.429327 1.9643 0.0091506 6 4 1 -3.51884e-09 
1.27314 -0.673084 0.000147016 0.0025 0.546425 0.429324 1.96424 0.00915038 7 4 1 8.22459e-09 
1.27771 -0.673085 0.00015727 0.0025 0.54644 0.429324 1.96418 0.00915014 8 4 1 4.75206e-09 
1.28229 -0.673086 0.000167852 0.0025 0.546452 0.429323 1.96414 0.00914994 9 4 1 5.46436e-09 
1.28686 -0.673087 0.00017772 0.0025 0.546463 0.429322 1.9641 0.00914975 10 4 1 -2.24903e-09 
1.29144 -0.673089 0.000186524 0.0025 0.546474 0.429322 1.96405 0.00914956 11 4 1 4.72164e-09 
1.29601 -0.67309 0.000195023 0.0025 0.546484 0.429321 1.96402 0.00914939 12 4 1 2.84445e-09 
1.30059 -0.673091 0.000204839 0.0025 0.546493 0.429321 1.96398 0.00914925 13 4 1 3.56247e-09 
1.30516 -0.673093 0.000217612 0.0025 0.546501 0.42932 1.96395 0.00914912 14 4 1 2.10522e-09 
1.30973 -0.673094 0.000234051 0.0025 0.546508 0.42932 1.96392 0.009149 15 4 1 -1.60157e-09 
1.31431 -0.673096 0.000253447 0.0025 0.546515 0.429319 1.96389 0.00914888 16 4 1 4.88028e-09 
1.31888 -0.673098 0.000273935 0.0025 0.546521 0.429318 1.96387 0.00914878 17 4 1 1.46209e-09 
1.32346 -0.6731 0.000293301 0.0025 0.546526 0.429318 1.96385 0.00914869 18 4 1 -1.20536e-09 
1.32803 -0.673102 0.000309781 0.0025 0.546532 0.429317 1.96382 0.0091486 19 4 1 2.70103e-09 
1.33261 -0.673104 0.000322236 0.0025 0.546536 0.429316 1.9638 0.00914852 20 4 1 1.18726e-09 
1.33718 -0.673106 0.000329433 0.0025 0.54654 0.429315 1.96378 0.00914845 21 4 1 1.23033e-09 
1.34175 -0.673109 0.0003287 0.0025 0.546544 0.429314 1.96377 0.00914839 22 4 1 1.12523e-09 
1.34633 -0.673112 0.000314872 0.0025 0.546548 0.429313 1.96375 0.00914834 23 4 1 -6.08367e-11 
1.3509 -0.673115 0.000280761 0.0025 0.546551 0.429312 1.96374 0.00914828 24 4 1 1.64979e-09 
1.35548 -0.673119 0.000220029 0.0025 0.546554 0.429312 1.96372 0.00914823 25 4 1 9.83354e-10 
1.36005 -0.673123 0.000132073 0.0025 0.546557 0.429311 1.96371 0.00914818 26 4 1 -4.21871e-11 
1.36463 -0.673128 2.67461e-05 0.0025 0.54656 0.429311 1.9637 0.00914813 27 4 1 1.58445e-09 
1.3692 -0.673134 -7.42272e-05 0.0025 0.546562 0.42931 1.96368 0.00914809 28 4 1 1.2112e-09 
1.37377 -0.673141 -0.000141349 0.0025 0.546565 0.429311 1.96367 0.00914804 29 4 1 -5.1462e-10 
1.37835 -0.673148 -0.000146217 0.0025 0.546568 0.429311 1.96366 0.00914799 30 4 1 5.91737e-10 
1.38292 -0.673156 -7.13218e-05 0.0025 0.546571 0.429311 1.96365 0.00914794 31 4 1 1.84169e-09 
1.3875 -0.673164 8.39763e-05 0.0025 0.546573 0.429311 1.96365 0.00914791 32 4 1 -1.1963e-09 
1.39207 -0.673172 0.000303921 0.0025 0.546575 0.42931 1.96364 0.00914787 33 4 1 -1.34139e-09 
1.39664 -0.673179 0.000562353 0.0025 0.546576 0.429309 1.96363 0.00914785 34 4 1 1.49617e-09 
1.40122 -0.673186 0.000830956 0.0025 0.546577 0.429308 1.96362 0.00914784 35 3 1 -8.63421e-10 
1.40579 -0.673192 0.00108654 0.0025 0.546577 0.429305 1.96361 0.00914785 36 4 1 -1.50349e-09 
1.41037 -0.673198 0.00131553 0.0025 0.546576 0.429302 1.9636 0.00914786 37 4 1 8.70303e-10 
1.41494 -0.673204 0.00151493 0.0025 0.546575 0.429299 1.96359 0.00914788 38 4 1 -3.81344e-10 
1.41951 -0.67321 0.00168988 0.0025 0.546572 0.429295 1.96358 0.00914792 39 4 1 -1.13608e-09 
1.42409 -0.673217 0.00184881 0.0025 0.54657 0.42929 1.96357 0.00914796 40 4 1 3.57577e-10 
1.42866 -0.673224 0.0019991 0.0025 0.546567 0.429285 1.96355 0.00914801 41 4 1 1.16653e-10 
1.43324 -0.673231 0.00214581 0.0025 0.546563 0.42928 1.96354 0.00914807 42 4 1 -9.36958e-10 
1.43781 -0.673239 0.00229402 0.0025 0.54656 0.429274 1.96353 0.00914813 43 4 1 -3.20204e-10 
1.44238 -0.673248 0.0024514 0.0025 0.546555 0.429268 1.96352 0.0091482 44 4 1 6.28618e-10 
1.44696 -0.673257 0.00262725 0.0025 0.54655 0.429262 1.9635 0.00914829 45 4 1 -7.56508e-10 
1.45153 -0.673268 0.00282741 0.0025 0.546545 0.429254 1.96349 0.00914838 46 4 1 -1.16984e-09 
1.45611 -0.673279 0.00305028 0.0025 0.546539 0.429247 1.96348 0.00914847 47 4 1 7.86943e-11 
1.46068 -0.673292 0.00328981 0.0025 0.546533 0.429239 1.96346 0.00914858 48 4 1 -2.91743e-10 
1.46525 -0.673306 0.00354491 0.0025 0.546526 0.42923 1.96345 0.0091487 49 4 1 -1.23648e-09 
1.46983 -0.673321 0.00382632 0.0025 0.546518 0.42922 1.96343 0.00914883 50 4 1 -1.00747e-09 
1.4744 -0.673338 0.00415123 0.0025 0.546509 0.429209 1.96341 0.00914897 51 4 1 -1.91954e-10 
1.47898 -0.673357 0.00452806 0.0025 0.5465 0.429198 1.96339 0.00914913 52 4 1 -1.05528e-09 
1.48355 -0.673377 0.00494841 0.0025 0.546489 0.429186 1.96338 0.00914931 53 4 1 -1.93347e-09 
1.48813 -0.6734 0.00540224 0.0025 0.546478 0.429172 1.96335 0.0091495 54 4 1 -1.21513e-09 
1.4927 -0.673426 0.00590674 0.0025 0.546465 0.429157 1.96333 0.00914971 55 4 1 -7.95178e-10 
1.49728 -0.673454 0.00651403 0.0025 0.546451 0.42914 1.96331 0.00914995 56 4 1 -2.1299e-09 
-0.498148 -0.673485 0.00727513 0.0025 0.546435 0.429122 1.96328 0.00915022 57 4 1 -2.9287e-09 
-0.493573 -0.67352 0.00818839 0.0025 0.546418 0.429102 1.96325 0.00915051 58 4 1 -2.10201e-09 
-0.488998 -0.673558 0.00919291 0.0025 0.546398 0.429079 1.96322 0.00915085 59 4 1 -2.65279e-09 
-0.484422 -0.6736 0.0102286 0.0025 0.546375 0.429053 1.96318 0.00915123 60 4 1 -3.52772e-09 
-0.479847 -0.673647 0.0113092 0.0025 0.54635 0.429025 1.96314 0.00915165 61 4 1 -3.56048e-09 
-0.475271 -0.6737 0.0125341 0.0025 0.546321 0.428993 1.9631 0.00915212 62 4 1 -3.34824e-09 
-0.470694 -0.67376 0.0140191 0.0025 0.54629 0.428958 1.96305 0.00915265 63 4 1 -4.35977e-09 
-0.466118 -0.673827 0.0158077 0.0025 0.546255 0.428918 1.963 0.00915324 64 4 1 -5.50404e-09 
-0.461541 -0.673902 0.017836 0.0025 0.546215 0.428874 1.96294 0.00915391 65 4 1 -5.62797e-09 
-0.456964 -0.673984 0.0199733 0.0025 0.54617 0.428824 1.96287 0.00915465 66 4 1 -5.69646e-09 
-0.452387 -0.674075 0.0220826 0.0025 0.546121 0.428769 1.96279 0.00915548 67 4 1 -5.6952e-09 
-0.447809 -0.674175 0.0240711 0.0025 0.546066 0.428708 1.96271 0.0091564 68 4 1 -5.22713e-09 
-0.44323 -0.674286 0.0259603 0.0025 0.546007 0.428643 1.96263 0.00915738 69 4 1 -4.35126e-09 
-0.438651 -0.674407 0.0278612 0.0025 0.545945 0.428573 1.96253 0.00915844 70 4 1 -3.95223e-09 
-0.434072 -0.674535 0.0297027 0.0025 0.545878 0.4285 1.96243 0.00915955 71 4 1 -3.10489e-09 
-0.429492 -0.674669 0.0310479 0.0025 0.545809 0.428424 1.96233 0.00916071 72 4 1 -7.14482e-10 
-0.424911 -0.674804 0.031393 0.0025 0.545739 0.428346 1.96223 0.00916188 73 4 1 2.48839e-09 
-0.42033 -0.674938 0.0306349 0.0025 0.545671 0.428271 1.96213 0.00916303 74 4 1 5.76673e-09 
-0.415748 -0.675064 0.0290114 0.0025 0.545607 0.428201 1.96204 0.0091641 75 4 1 9.30871e-09 
-0.411166 -0.675175 0.0256692 0.0025 0.545552 0.428139 1.96195 0.00916504 76 4 1 1.50361e-08 
-0.406583 -0.675265 0.0192622 0.0025 0.545508 0.428091 1.96189 0.00916577 77 4 1 2.02462e-08 
-0.402 -0.67533 0.0132039 0.0025 0.545481 0.428061 1.96185 0.00916622 78 4 1 2.56829e-08 
-0.397417 -0.675353 0.000809345 0.0025 0.545475 0.428054 1.96184 0.00916632 79 5 1 2.27826e-08 
-0.392834 -0.675341 0.000478694 0.0025 0.545489 0.428071 1.96186 0.00916608 80 4 1 7.17752e-08 
-0.388251 -0.67528 -0.0417531 0.0025 0.545564 0.428159 1.96196 0.00916482 81 4 1 2.29385e-07 
-0.383669 -0.674807 -0.169819 0.0025 0.545826 0.428451 1.96233 0.00916043 82 4 1 3.38843e-07 
-0.37909 -0.673786 -0.286682 0.0025 0.546356 0.429034 1.9631 0.00915154 83 4 1 3.77763e-07 
-0.374517 -0.672259 -0.408721 0.0025 0.547174 0.429937 1.96427 0.00913787 84 4 1 5.35411e-07 
-0.369952 -0.670056 -0.612702 0.0025 0.548375 0.431268 1.96599 0.00911785 85 4 1 8.30461e-07 
-0.365399 -0.666742 -0.918951 0.0025 0.550133 0.433208 1.96851 0.00908872 86 4 1 1.04716e-06 
-0.360864 -0.662148 -1.20746 0.0025 0.552521 0.435839 1.97192 0.00904942 87 4 1 1.05483e-06 
-0.35635 -0.656513 -1.41239 0.0025 0.555446 0.439065 1.97609 0.00900178 88 4 1 9.66948e-07 
-0.351862 -0.65021 -1.54398 0.0025 0.558751 0.442722 1.98078 0.00894853 89 4 1 9.0209e-07 
-0.347401 -0.643469 -1.63755 0.0025 0.562323 0.446688 1.98584 0.00889169 90 4 1 9.4313e-07 
-0.34297 -0.636356 -1.75274 0.0025 0.566132 0.450932 1.99121 0.00883186 91 4 1 1.05918e-06 
-0.338569 -0.628781 -1.88526 0.0025 0.570206 0.455481 1.99693 0.00876876 92 4 1 1.15138e-06 
-0.334201 -0.620754 -2.01068 0.0025 0.574547 0.460342 2.00299 0.00870251 93 4 1 1.20665e-06 
-0.329867 -0.612292 -2.12641 0.0025 0.579134 0.465494 2.00938 0.00863358 94 4 1 1.19985e-06 
-0.325567 -0.603534 -2.20172 0.0025 0.583913 0.470876 2.01599 0.00856292 95 4 1 1.13792e-06 
-0.321304 -0.594618 -2.24382 0.0025 0.588807 0.476407 2.02273 0.00849175 96 4 1 1.06279e-06 
-0.317075 -0.585688 -2.25786 0.0025 0.593748 0.482011 2.02951 0.00842108 97 4 1 9.66355e-07 
-0.312882 -0.576846 -2.23853 0.0025 0.598676 0.487618 2.03623 0.00835177 98 4 1 8.92786e-07 
-0.308724 -0.568179 -2.21909 0.0025 0.603552 0.493187 2.04284 0.00828429 99 4 1 8.59068e-07 
-0.304598 -0.559656 -2.20302 0.0025 0.608376 0.498714 2.04936 0.0082186 100 4 1 8.26177e-07 
-0.300505 -0.551281 -2.18433 0.0025 0.613145 0.504194 2.05577 0.00815468 101 4 1 7.7332e-07 
-0.296443 -0.543089 -2.15055 0.0025 0.617845 0.509614 2.06206 0.00809264 102 4 1 7.43582e-07 
-0.292412 -0.535057 -2.13319 0.0025 0.622479 0.514973 2.06823 0.0080324 103 4 1 7.36224e-07 
-0.288411 -0.527162 -2.1188 0.0025 0.627062 0.520289 2.07431 0.00797369 104 4 1 7.09341e-07 
-0.284438 -0.519395 -2.0981 0.0025 0.631594 0.525561 2.08029 0.00791647 105 4 1 6.83057e-07 
-0.280494 -0.511762 -2.07947 0.0025 0.636075 0.53079 2.08618 0.0078607 106 4 1 6.90816e-07 
-0.276577 -0.504217 -2.08293 0.0025 0.640525 0.535996 2.09201 0.00780609 107 4 1 6.81016e-07 
-0.272688 -0.496765 -2.06813 0.0025 0.644951 0.541188 2.09778 0.00775252 108 4 1 6.72086e-07 
-0.268825 -0.489402 -2.07033 0.0025 0.649357 0.546372 2.1035 0.00769993 109 4 1 7.15149e-07 
-0.264988 -0.482045 -2.10031 0.0025 0.653779 0.551589 2.10921 0.00764784 110 4 1 7.17988e-07 
-0.261177 -0.47466 -2.10489 0.0025 0.658225 0.556847 2.11494 0.00759619 111 4 1 7.12239e-07 
-0.257392 -0.467322 -2.12329 0.0025 0.66269 0.562144 2.12066 0.00754501 112 4 1 7.67119e-07 
-0.253632 -0.459907 -2.17327 0.0025 0.667211 0.567521 2.12644 0.00749388 113 4 1 8.02211e-07 
-0.249898 -0.452408 -2.21436 0.0025 0.671807 0.573002 2.13229 0.00744261 114 4 1 7.94578e-07 
-0.246189 -0.444845 -2.2441 0.0025 0.676464 0.57857 2.13819 0.00739137 115 4 1 7.85662e-07 
-0.242506 -0.437259 -2.26904 0.0025 0.681169 0.58421 2.14412 0.00734033 116 4 1 7.89018e-07 
-0.238849 -0.429644 -2.29819 0.0025 0.685917 0.58992 2.15009 0.00728951 117 4 1 8.06408e-07 
-0.235217 -0.421968 -2.33711 0.0025 0.690717 0.595707 2.1561 0.00723885 118 4 1 7.80059e-07 
-0.23161 -0.414306 -2.3402 0.0025 0.695548 0.601546 2.16211 0.00718858 119 4 1 7.50547e-07 
-0.228028 -0.406677 -2.35256 0.0025 0.700386 0.607413 2.16812 0.00713892 120 4 1 7.60673e-07 
-0.224471 -0.399052 -2.37403 0.0025 0.705242 0.613316 2.17412 0.00708976 121 4 1 7.33169e-07 
-0.220938 -0.391461 -2.36715 0.0025 0.7101 0.619237 2.18009 0.00704127 122 4 1 6.99462e-07 
-0.217429 -0.383965 -2.36304 0.0025 0.71494 0.625155 2.18603 0.0069936 123 4 1 7.16319e-07 
-0.213944 -0.376492 -2.38412 0.0025 0.719782 0.63109 2.19193 0.00694655 124 4 1 7.14164e-07 
-0.210483 -0.36904 -2.38701 0.0025 0.72463 0.637049 2.19783 0.00690007 125 4 1 6.81825e-07 
-0.207044 -0.361658 -2.38184 0.0025 0.729467 0.643009 2.20368 0.00685432 126 4 1 6.75564e-07 
-0.203628 -0.354326 -2.38819 0.0025 0.734293 0.648973 2.2095 0.00680927 127 4 1 6.62406e-07 
-0.200235 -0.347062 -2.38126 0.0025 0.739107 0.654938 2.21529 0.00676492 128 4 1 6.73692e-07 
-0.196863 -0.339828 -2.40703 0.0025 0.743924 0.660921 2.22105 0.00672112 129 4 1 6.56988e-07 
-0.193514 -0.332617 -2.39292 0.0025 0.748737 0.666914 2.22679 0.00667791 130 4 1 6.15575e-07 
-0.190185 -0.325509 -2.38255 0.0025 0.753522 0.672888 2.23247 0.00663551 131 4 1 6.24626e-07 
-0.186878 -0.318463 -2.38967 0.0025 0.758294 0.678863 2.23811 0.00659375 132 4 1 6.53423e-07 
-0.183592 -0.31141 -2.41846 0.0025 0.763081 0.68487 2.24375 0.00655238 133 4 1 6.41095e-07 
-0.180326 -0.30435 -2.41768 0.0025 0.767878 0.690903 2.24938 0.00651145 134 4 1 5.77543e-07 
-0.17708 -0.297423 -2.38468 0.0025 0.77264 0.696909 2.25495 0.00647132 135 4 1 5.83156e-07 
-0.173854 -0.290576 -2.40107 0.0025 0.777381 0.702905 2.26048 0.00643185 136 4 1 6.33231e-07 
-0.170648 -0.283699 -2.43408 0.0025 0.782146 0.708943 2.26601 0.00639267 137 4 1 6.0062e-07 
-0.167461 -0.276835 -2.41917 0.0025 0.786913 0.714997 2.27152 0.00635395 138 4 1 5.48331e-07 
-0.164294 -0.270065 -2.40056 0.0025 0.791645 0.721024 2.27697 0.00631596 139 4 1 5.46544e-07 
-0.161145 -0.263387 -2.39668 0.0025 0.796351 0.727033 2.28238 0.00627864 140 4 1 5.80409e-07 
-0.158015 -0.256721 -2.42495 0.0025 0.801064 0.733066 2.28777 0.00624169 141 4 1 6.00362e-07 
-0.154904 -0.250022 -2.44736 0.0025 0.805805 0.739145 2.29318 0.00620497 142 4 1 5.54138e-07 
-0.15181 -0.24337 -2.4274 0.0025 0.810538 0.745229 2.29856 0.00616874 143 4 1 5.12556e-07 
-0.148735 -0.236826 -2.4104 0.0025 0.815234 0.751281 2.30387 0.00613321 144 4 1 5.18145e-07 
-0.145677 -0.230324 -2.41067 0.0025 0.819908 0.75732 2.30915 0.00609824 145 4 1 5.55419e-07 
-0.142637 -0.22386 -2.44364 0.0025 0.824596 0.763389 2.31442 0.00606357 146 4 1 5.57023e-07 
-0.139613 -0.217344 -2.45005 0.0025 0.829303 0.769494 2.31969 0.00602916 147 4 1 5.10608e-07 
-0.136607 -0.210915 -2.43398 0.0025 0.833992 0.775591 2.32493 0.00599526 148 4 1 4.77605e-07 
-0.133618 -0.204572 -2.41088 0.0025 0.838643 0.781653 2.33011 0.00596201 149 4 1 4.7955e-07 
-0.130645 -0.198303 -2.40912 0.0025 0.843268 0.787698 2.33524 0.00592931 150 4 1 5.44352e-07 
-0.127689 -0.192014 -2.46725 0.0025 0.847925 0.793795 2.34039 0.00589675 151 4 1 5.49763e-07 
-0.124749 -0.185663 -2.47475 0.0025 0.852619 0.799951 2.34556 0.00586428 152 4 1 4.78783e-07 
-0.121824 -0.179377 -2.44991 0.0025 0.857291 0.806092 2.3507 0.00583233 153 4 1 4.19363e-07 
-0.118916 -0.173235 -2.39811 0.0025 0.861898 0.812164 2.35574 0.00580115 154 4 1 4.41237e-07 
-0.116023 -0.167191 -2.41292 0.0025 0.866472 0.818208 2.36073 0.00577053 155 4 1 5.42e-07 
-0.113146 -0.161058 -2.48983 0.0025 0.871101 0.824334 2.36577 0.00573986 156 4 1 5.34826e-07 
-0.110283 -0.154855 -2.49621 0.0025 0.875778 0.830534 2.37084 0.00570921 157 4 1 4.32575e-07 
-0.107436 -0.148747 -2.44757 0.0025 0.880414 0.836692 2.37585 0.00567914 158 4 1 3.41909e-07 
-0.104604 -0.142841 -2.35888 0.0025 0.884946 0.84273 2.38073 0.00565006 159 4 1 4.20271e-07 
-0.101786 -0.137032 -2.42027 0.0025 0.889451 0.848748 2.38557 0.00562145 160 4 1 5.59618e-07 
-0.0989827 -0.131038 -2.51127 0.0025 0.894055 0.854905 2.39051 0.0055925 161 4 1 5.45783e-07 
-0.0961937 -0.12496 -2.54463 0.0025 0.898738 0.861175 2.39551 0.00556336 162 4 1 3.98713e-07 
-0.0934193 -0.118953 -2.45133 0.0025 0.903368 0.867388 2.40044 0.00553484 163 4 1 2.73612e-07 
-0.0906588 -0.113275 -2.34487 0.0025 0.90785 0.873422 2.40519 0.00550752 164 4 1 3.82255e-07 
-0.0879117 -0.107645 -2.40921 0.0025 0.912294 0.879421 2.40989 0.00548069 165 4 1 5.42732e-07 
-0.0851781 -0.101868 -2.51639 0.0025 0.916849 0.885575 2.4147 0.00545346 166 4 1 5.57963e-07 
-0.0824583 -0.095881 -2.58422 0.0025 0.921515 0.891882 2.41961 0.00542585 167 4 1 3.41006e-07 
-0.0797522 -0.0900623 -2.41616 0.0025 0.926101 0.898097 2.42442 0.00539898 168 4 1 2.28638e-07 
-0.0770592 -0.0845817 -2.35099 0.0025 0.930514 0.904098 2.42903 0.00537338 169 4 1 3.33727e-07 
-0.0743788 -0.0791383 -2.35208 0.0025 0.934872 0.910037 2.43357 0.00534833 170 4 1 4.67811e-07 
-0.0717109 -0.0736894 -2.46663 0.0025 0.939309 0.916097 2.43818 0.00532306 171 4 1 6.4749e-07 
-0.0690557 -0.067823 -2.67967 0.0025 0.943957 0.922441 2.44301 0.00529685 172 4 1 3.71745e-07 
-0.066414 -0.0619914 -2.43339 0.0025 0.948576 0.928752 2.44779 0.00527106 173 4 1 6.34515e-08 
-0.0637846 -0.0568216 -2.24408 0.0025 0.9529 0.934699 2.45223 0.00524714 174 4 1 4.64415e-07 
-0.0611668 -0.0514805 -2.56281 0.0025 0.957274 0.940715 2.45674 0.00522317 175 4 1 4.33065e-07 
-0.0585615 -0.0458753 -2.36919 0.0025 0.961715 0.946814 2.46129 0.00519904 176 4 1 7.74489e-08 
-0.0559678 -0.040972 -2.17466 0.0025 0.96593 0.952649 2.46558 0.00517636 177 4 1 6.99341e-07 
-0.0533851 -0.0355819 -2.81377 0.0025 0.970418 0.958862 2.47017 0.00515242 178 4 1 7.66647e-07 
-0.0508153 -0.0293485 -2.75614 0.0025 0.975225 0.965471 2.47509 0.00512702 179 4 1 -5.07363e-07 
-0.048258 -0.0245345 -1.65158 0.0025 0.97927 0.971075 2.47916 0.00510584 180 4 1 -3.49967e-07 
-0.0457095 -0.0210583 -1.79833 0.0025 0.982721 0.975941 2.48261 0.00508791 181 4 1 1.47139e-06 
-0.0431701 -0.0157147 -3.29139 0.0025 0.987206 0.982195 2.48717 0.0050648 182 4 1 1.33701e-06 
-0.0406446 -0.00860784 -3.2096 0.0025 0.992542 0.989538 2.4926 0.00503757 183 4 1 -1.20811e-06 
-0.0381325 -0.00403715 -1.12705 0.0025 0.99647 0.994995 2.4965 0.00501771 184 4 1 -1.26617e-06 
-0.0356269 -0.00239769 -0.935631 0.0025 0.998952 0.998588 2.49891 0.00500524 185 4 1 1.85853e-06 
-0.0331272 0.00181678 -3.47454 0.0025 1.0029 1.00417 2.5029 0.00498552 186 4 1 2.30509e-06 
-0.0306413 0.00952159 -3.85731 0.0025 1.00866 1.0121 2.50873 0.00495708 187 4 1 -1.48244e-06 
-0.0281701 0.0139573 -1.00027 0.0025 1.01273 1.01775 2.51275 0.00493717 188 4 1 -2.46472e-06 
-0.0257042 0.0138901 0.223453 0.0025 1.01415 1.0199 2.51406 0.00493025 189 4 1 1.1519e-06 
-0.0232399 0.015099 -2.55726 0.0025 1.01643 1.02315 2.51634 0.00491919 190 4 1 1.61099e-06 
-0.020785 0.0196241 -2.3196 0.0025 1.02015 1.02827 2.5201 0.00490123 191 4 1 -1.45434e-06 
-0.0183386 0.0205872 -0.614121 0.0025 1.02237 1.03139 2.52228 0.00489058 192 4 1 -1.45955e-06 
-0.0158944 0.0193835 -0.139373 0.0025 1.02283 1.0321 2.52271 0.00488838 193 3 1 -4.15018e-07 
-0.0134502 0.0172519 0.0403718 0.0025 1.02275 1.03201 2.52263 0.00488876 194 4 1 -9.11252e-08 
-0.0110056 0.014645 0.0609597 0.0025 1.02254 1.03171 2.52242 0.00488977 195 4 1 1.69333e-08 
-0.00856047 0.0117291 0.0421418 0.0025 1.02235 1.03144 2.52223 0.00489071 196 4 1 4.37016e-08 
-0.0061149 0.00857192 0.0206837 0.0025 1.0222 1.03123 2.52208 0.00489142 197 4 1 4.44977e-08 
-0.00366905 0.00522606 0.00719277 0.0025 1.0221 1.0311 2.52199 0.00489187 198 4 1 3.96386e-08 
-0.00122303 0.00175648 0.00143066 0.0025 1.02206 1.03103 2.52195 0.00489208 199 4 1 3.62584e-08 
0.00122303 -0.00175648 -0.00143066 0.0025 1.02206 1.03103 2.52195 0.00489208 200 4 1 3.62584e-08 
0.00366905 -0.00522606 -0.00719277 0.0025 1.0221 1.0311 2.52199 0.00489187 201 4 1 3.96386e-08 
0.0061149 -0.00857192 -0.0206837 0.0025 1.0222 1.03123 2.52208 0.00489142 202 4 1 4.44977e-08 
0.00856047 -0.0117291 -0.0421418 0.0025 1.02235 1.03144 2.52223 0.00489071 203 4 1 4.37016e-08 
0.0110056 -0.014645 -0.0609597 0.0025 1.02254 1.03171 2.52242 0.00488977 204 4 1 1.69333e-08 
0.0134502 -0.0172519 -0.0403718 0.0025 1.02275 1.03201 2.52263 0.00488876 205 4 1 -9.11252e-08 
0.0158944 -0.0193835 0.139373 0.0025 1.02283 1.0321 2.52271 0.00488838 206 3 1 -4.15018e-07 
0.0183386 -0.0205872 0.614121 0.0025 1.02237 1.03139 2.52228 0.00489058 207 4 1 -1.45955e-06 
0.020785 -0.0196241 2.3196 0.0025 1.02015 1.02827 2.5201 0.00490123 208 4 1 -1.45434e-06 
0.0232399 -0.015099 2.55726 0.0025 1.01643 1.02315 2.51634 0.00491919 209 4 1 1.61099e-06 
0.0257042 -0.0138901 -0.223453 0.0025 1.01415 1.0199 2.51406 0.00493025 210 4 1 1.1519e-06 
