# Time [s]: 0.399132
# Columns: pos [m], vel [m/s], acc [m/s^2], mass [kg], dens [kg/m^3], pres [Pa], ene [J/kg], sml [m], id, neighbor, alpha, gradh, ...additional?
1.23357 -0.673078 8.05018e-05 0.0025 0.511058 0.432735 2.15251 0.00978363 0 4 1 -0.000134225 
1.23835 -0.673078 8.3448e-05 0.0025 0.536915 0.426198 1.95005 0.00931246 1 4 1 0.000179253 
1.24289 -0.673079 8.66895e-05 0.0025 0.548246 0.430868 1.96851 0.00912 2 3 1 -1.90585e-05 
1.24747 -0.67308 9.08177e-05 0.0025 0.545981 0.429204 1.96466 0.00915783 3 5 1 3.48564e-06 
1.25205 -0.67308 9.60746e-05 0.0025 0.546379 0.429359 1.96459 0.00915116 4 4 1 -1.3869e-07 
1.25663 -0.673081 0.000102324 0.0025 0.54639 0.429329 1.96436 0.00915097 5 4 1 1.43724e-07 
1.2612 -0.673082 0.000108973 0.0025 0.546413 0.429328 1.9643 0.00915059 6 4 1 -3.516e-09 
1.26578 -0.673083 0.000115258 0.0025 0.546427 0.429325 1.96424 0.00915036 7 4 1 8.23246e-09 
1.27035 -0.673084 0.000120729 0.0025 0.546441 0.429325 1.96419 0.00915012 8 4 1 4.76466e-09 
1.27493 -0.673085 0.000125641 0.0025 0.546453 0.429324 1.96414 0.00914991 9 4 1 5.47868e-09 
1.2795 -0.673086 0.000130954 0.0025 0.546465 0.429324 1.9641 0.00914972 10 4 1 -2.23751e-09 
1.28408 -0.673087 0.000137889 0.0025 0.546476 0.429324 1.96406 0.00914954 11 4 1 4.72707e-09 
1.28865 -0.673088 0.000147257 0.0025 0.546486 0.429323 1.96402 0.00914937 12 4 1 2.84399e-09 
1.29322 -0.673089 0.00015894 0.0025 0.546495 0.429323 1.96398 0.00914922 13 4 1 3.56034e-09 
1.2978 -0.673091 0.000171844 0.0025 0.546503 0.429322 1.96395 0.00914908 14 4 1 2.10776e-09 
1.30237 -0.673092 0.000184286 0.0025 0.54651 0.429322 1.96393 0.00914896 15 4 1 -1.58882e-09 
1.30695 -0.673094 0.000194549 0.0025 0.546517 0.429321 1.9639 0.00914884 16 4 1 4.90581e-09 
1.31152 -0.673095 0.000201132 0.0025 0.546523 0.429321 1.96387 0.00914874 17 4 1 1.50019e-09 
1.3161 -0.673097 0.000202429 0.0025 0.546529 0.42932 1.96385 0.00914865 18 4 1 -1.15502e-09 
1.32067 -0.673099 0.000195918 0.0025 0.546534 0.42932 1.96383 0.00914856 19 4 1 2.76657e-09 
1.32525 -0.673101 0.000177428 0.0025 0.546539 0.429319 1.96381 0.00914847 20 4 1 1.27568e-09 
1.32982 -0.673104 0.000141343 0.0025 0.546544 0.429319 1.96379 0.0091484 21 4 1 1.3511e-09 
1.33439 -0.673106 8.24435e-05 0.0025 0.546548 0.429318 1.96377 0.00914833 22 4 1 1.28162e-09 
1.33897 -0.67311 -7.12009e-07 0.0025 0.546552 0.429318 1.96376 0.00914826 23 4 1 1.18162e-10 
1.34354 -0.673114 -0.000102119 0.0025 0.546556 0.429318 1.96374 0.0091482 24 4 1 1.81594e-09 
1.34812 -0.673119 -0.000206482 0.0025 0.54656 0.429318 1.96373 0.00914813 25 4 1 1.083e-09 
1.35269 -0.673124 -0.000291007 0.0025 0.546564 0.429319 1.96372 0.00914807 26 4 1 -6.4043e-11 
1.35726 -0.67313 -0.000331045 0.0025 0.546567 0.429319 1.96371 0.009148 27 4 1 1.40894e-09 
1.36184 -0.673136 -0.000307618 0.0025 0.546571 0.42932 1.9637 0.00914794 28 4 1 8.92379e-10 
1.36641 -0.673143 -0.000213572 0.0025 0.546574 0.429321 1.96369 0.00914789 29 4 1 -9.20597e-10 
1.37099 -0.67315 -5.56935e-05 0.0025 0.546578 0.429321 1.96368 0.00914783 30 4 1 1.84212e-10 
1.37556 -0.673156 0.000147868 0.0025 0.54658 0.429321 1.96367 0.00914779 31 4 1 1.51894e-09 
1.38013 -0.673161 0.000373371 0.0025 0.546582 0.42932 1.96366 0.00914776 32 4 1 -1.37455e-09 
1.38471 -0.673167 0.000597989 0.0025 0.546583 0.429319 1.96365 0.00914774 33 4 1 -1.35643e-09 
1.38928 -0.673171 0.000804881 0.0025 0.546584 0.429318 1.96364 0.00914772 34 3 1 1.62337e-09 
1.39386 -0.673176 0.000985588 0.0025 0.546584 0.429315 1.96363 0.00914773 35 4 1 -6.41212e-10 
1.39843 -0.67318 0.00113947 0.0025 0.546583 0.429313 1.96362 0.00914773 36 4 1 -1.24066e-09 
1.403 -0.673184 0.00127088 0.0025 0.546583 0.42931 1.96361 0.00914775 37 4 1 1.12961e-09 
1.40758 -0.673188 0.00138582 0.0025 0.546581 0.429306 1.9636 0.00914777 38 4 1 -1.49336e-10 
1.41215 -0.673193 0.00148984 0.0025 0.54658 0.429303 1.96359 0.0091478 39 4 1 -9.35847e-10 
1.41673 -0.673198 0.00158815 0.0025 0.546578 0.429299 1.96358 0.00914783 40 4 1 5.30503e-10 
1.4213 -0.673203 0.00168659 0.0025 0.546575 0.429295 1.96357 0.00914787 41 4 1 2.64858e-10 
1.42587 -0.673209 0.00179155 0.0025 0.546572 0.42929 1.96356 0.00914792 42 4 1 -8.14144e-10 
1.43045 -0.673216 0.00190774 0.0025 0.54657 0.429285 1.96354 0.00914797 43 4 1 -2.17759e-10 
1.43502 -0.673223 0.00203581 0.0025 0.546566 0.42928 1.96353 0.00914802 44 4 1 7.29367e-10 
1.4396 -0.673231 0.002173 0.0025 0.546562 0.429275 1.96352 0.00914809 45 4 1 -6.31278e-10 
1.44417 -0.67324 0.0023175 0.0025 0.546558 0.429269 1.96351 0.00914816 46 4 1 -1.00589e-09 
1.44874 -0.673249 0.00247271 0.0025 0.546554 0.429263 1.9635 0.00914823 47 4 1 2.69763e-10 
1.45332 -0.673259 0.00264641 0.0025 0.546549 0.429256 1.96348 0.00914832 48 4 1 -9.92895e-11 
1.45789 -0.673271 0.00284417 0.0025 0.546543 0.429249 1.96347 0.00914841 49 4 1 -1.05016e-09 
1.46247 -0.673283 0.00306426 0.0025 0.546537 0.429241 1.96346 0.00914851 50 4 1 -7.98512e-10 
1.46704 -0.673297 0.0033026 0.0025 0.54653 0.429233 1.96344 0.00914862 51 4 1 7.73268e-11 
1.47161 -0.673313 0.00356607 0.0025 0.546523 0.429224 1.96343 0.00914874 52 4 1 -7.34127e-10 
1.47619 -0.673329 0.00387926 0.0025 0.546515 0.429214 1.96341 0.00914888 53 4 1 -1.63099e-09 
1.48076 -0.673348 0.00427102 0.0025 0.546506 0.429203 1.96339 0.00914903 54 4 1 -9.94281e-10 
1.48534 -0.673368 0.00474779 0.0025 0.546496 0.429191 1.96338 0.00914919 55 4 1 -6.0581e-10 
1.48991 -0.67339 0.00528151 0.0025 0.546485 0.429178 1.96336 0.00914938 56 4 1 -1.79213e-09 
1.49449 -0.673414 0.00583221 0.0025 0.546473 0.429163 1.96333 0.00914959 57 4 1 -2.26825e-09 
1.49906 -0.67344 0.0063907 0.0025 0.546459 0.429147 1.96331 0.00914982 58 4 1 -1.13221e-09 
-0.496363 -0.673469 0.00700156 0.0025 0.546444 0.42913 1.96328 0.00915008 59 4 1 -1.60942e-09 
-0.491788 -0.673502 0.00774091 0.0025 0.546426 0.42911 1.96326 0.00915036 60 4 1 -2.68609e-09 
-0.487213 -0.673539 0.008665 0.0025 0.546407 0.429088 1.96323 0.00915068 61 4 1 -2.98757e-09 
-0.482637 -0.67358 0.00977194 0.0025 0.546386 0.429064 1.96319 0.00915104 62 4 1 -2.82007e-09 
-0.478062 -0.673624 0.0110062 0.0025 0.546362 0.429037 1.96315 0.00915144 63 4 1 -3.52592e-09 
-0.473486 -0.673674 0.0123005 0.0025 0.546334 0.429006 1.96311 0.0091519 64 4 1 -4.16736e-09 
-0.46891 -0.67373 0.0136302 0.0025 0.546304 0.428971 1.96306 0.00915242 65 4 1 -3.934e-09 
-0.464333 -0.673793 0.0150505 0.0025 0.54627 0.428933 1.96301 0.00915299 66 4 1 -4.12471e-09 
-0.459757 -0.673864 0.0166774 0.0025 0.546232 0.428891 1.96295 0.00915362 67 4 1 -4.8502e-09 
-0.45518 -0.673943 0.0185852 0.0025 0.54619 0.428845 1.96289 0.00915432 68 4 1 -5.46985e-09 
-0.450602 -0.674032 0.020708 0.0025 0.546144 0.428793 1.96282 0.0091551 69 4 1 -5.51715e-09 
-0.446025 -0.674129 0.0228932 0.0025 0.546092 0.428736 1.96275 0.00915596 70 4 1 -5.64833e-09 
-0.441446 -0.674234 0.0250569 0.0025 0.546036 0.428673 1.96266 0.0091569 71 4 1 -5.46894e-09 
-0.436868 -0.674349 0.0271608 0.0025 0.545975 0.428606 1.96257 0.00915792 72 4 1 -4.48198e-09 
-0.432288 -0.674471 0.0289764 0.0025 0.54591 0.428534 1.96248 0.00915901 73 4 1 -3.03474e-09 
-0.427709 -0.674599 0.0301199 0.0025 0.545843 0.42846 1.96238 0.00916015 74 4 1 -9.18769e-10 
-0.423128 -0.674731 0.0304892 0.0025 0.545774 0.428384 1.96228 0.0091613 75 4 1 1.78536e-09 
-0.418547 -0.674865 0.0300646 0.0025 0.545707 0.42831 1.96218 0.00916243 76 4 1 4.93429e-09 
-0.413966 -0.674993 0.0284157 0.0025 0.545643 0.428239 1.96208 0.00916349 77 4 1 8.46972e-09 
-0.409384 -0.675112 0.0258671 0.0025 0.545587 0.428177 1.962 0.00916445 78 4 1 1.13867e-08 
-0.404801 -0.675209 0.0224105 0.0025 0.545539 0.428125 1.96193 0.00916524 79 4 1 1.51035e-08 
-0.400219 -0.675279 0.0157059 0.0025 0.545505 0.428086 1.96188 0.00916582 80 4 1 2.19091e-08 
-0.395636 -0.675323 0.00820711 0.0025 0.545488 0.428068 1.96185 0.0091661 81 5 1 2.64712e-08 
-0.391053 -0.675308 -0.00334299 0.0025 0.545493 0.428074 1.96186 0.00916601 82 4 1 3.46029e-08 
-0.38647 -0.675293 -0.00946944 0.0025 0.545529 0.428116 1.96191 0.00916542 83 4 1 1.40166e-07 
-0.381887 -0.675074 -0.0994606 0.0025 0.545681 0.428289 1.96212 0.00916287 84 4 1 2.96385e-07 
-0.377307 -0.67435 -0.230494 0.0025 0.54607 0.428719 1.96268 0.00915633 85 4 1 3.63452e-07 
-0.372731 -0.673059 -0.349521 0.0025 0.546743 0.429459 1.96365 0.00914507 86 4 1 4.24179e-07 
-0.368162 -0.671235 -0.489842 0.0025 0.547729 0.430549 1.96506 0.00912861 87 4 1 6.29872e-07 
-0.363602 -0.668584 -0.732041 0.0025 0.549151 0.432123 1.9671 0.00910496 88 4 1 9.11214e-07 
-0.359057 -0.664758 -1.03469 0.0025 0.551158 0.434336 1.96997 0.0090718 89 4 1 1.04447e-06 
-0.35453 -0.659755 -1.28681 0.0025 0.553757 0.437201 1.97368 0.00902923 90 4 1 1.0039e-06 
-0.350027 -0.65388 -1.4585 0.0025 0.556821 0.440584 1.97804 0.00897955 91 4 1 9.07521e-07 
-0.345551 -0.647453 -1.56242 0.0025 0.560201 0.444329 1.98284 0.00892536 92 4 1 8.62356e-07 
-0.341102 -0.640691 -1.64921 0.0025 0.563808 0.448339 1.98793 0.00886826 93 4 1 9.25825e-07 
-0.336682 -0.633547 -1.7609 0.0025 0.567636 0.452607 1.99332 0.00880846 94 4 1 1.02684e-06 
-0.332293 -0.625998 -1.87849 0.0025 0.571706 0.457157 1.99902 0.00874576 95 4 1 1.10733e-06 
-0.327936 -0.618018 -1.99719 0.0025 0.576019 0.461993 2.00504 0.00868027 96 4 1 1.14916e-06 
-0.323613 -0.609678 -2.09626 0.0025 0.580553 0.467088 2.01134 0.00861248 97 4 1 1.12385e-06 
-0.319324 -0.601089 -2.1576 0.0025 0.585246 0.47238 2.01783 0.00854341 98 4 1 1.06497e-06 
-0.315069 -0.592402 -2.19302 0.0025 0.590033 0.477795 2.02442 0.00847411 99 4 1 9.88076e-07 
-0.31085 -0.583706 -2.19643 0.0025 0.59485 0.483262 2.03101 0.00840549 100 4 1 9.03552e-07 
-0.306664 -0.575127 -2.1806 0.0025 0.599644 0.488722 2.03754 0.00833828 101 4 1 8.35958e-07 
-0.302511 -0.566713 -2.1552 0.0025 0.604385 0.49414 2.04397 0.00827287 102 4 1 8.05252e-07 
-0.298391 -0.558433 -2.14268 0.0025 0.609072 0.499513 2.05029 0.00820921 103 4 1 7.79472e-07 
-0.294302 -0.550292 -2.12264 0.0025 0.613707 0.504842 2.05652 0.00814721 104 4 1 7.37722e-07 
-0.290243 -0.542326 -2.09788 0.0025 0.618282 0.510118 2.06264 0.00808693 105 4 1 7.06391e-07 
-0.286215 -0.534515 -2.07534 0.0025 0.622794 0.515338 2.06865 0.00802833 106 4 1 6.99452e-07 
-0.282215 -0.526827 -2.06755 0.0025 0.627259 0.520518 2.07457 0.00797119 107 4 1 6.74793e-07 
-0.278243 -0.519253 -2.04309 0.0025 0.631677 0.525657 2.0804 0.00791544 108 4 1 6.52219e-07 
-0.274299 -0.511812 -2.03144 0.0025 0.636047 0.530757 2.08614 0.00786105 109 4 1 6.60941e-07 
-0.270382 -0.504458 -2.03116 0.0025 0.64039 0.535837 2.09183 0.00780774 110 4 1 6.49607e-07 
-0.266492 -0.497169 -2.02089 0.0025 0.64471 0.540904 2.09746 0.00775542 111 4 1 6.34447e-07 
-0.262627 -0.489992 -2.01437 0.0025 0.649007 0.545959 2.10304 0.00770408 112 4 1 6.74685e-07 
-0.258787 -0.48281 -2.04595 0.0025 0.653315 0.55104 2.10861 0.00765328 113 4 1 6.882e-07 
-0.254973 -0.475612 -2.05273 0.0025 0.657648 0.556163 2.1142 0.00760285 114 4 1 6.77914e-07 
-0.251185 -0.468443 -2.069 0.0025 0.662 0.561323 2.11978 0.00755288 115 4 1 7.14836e-07 
-0.247421 -0.461249 -2.10575 0.0025 0.666395 0.566549 2.1254 0.00750306 116 4 1 7.47775e-07 
-0.243681 -0.453962 -2.14475 0.0025 0.670854 0.571863 2.13107 0.00745319 117 4 1 7.63349e-07 
-0.239967 -0.446608 -2.18473 0.0025 0.675378 0.577269 2.13681 0.00740326 118 4 1 7.4818e-07 
-0.236278 -0.439215 -2.20118 0.0025 0.679951 0.582747 2.14259 0.00735347 119 4 1 7.38461e-07 
-0.232614 -0.431819 -2.22702 0.0025 0.684559 0.588285 2.14838 0.00730397 120 4 1 7.6034e-07 
-0.228974 -0.424374 -2.26333 0.0025 0.689216 0.593894 2.15422 0.00725462 121 4 1 7.51233e-07 
-0.225359 -0.4169 -2.27883 0.0025 0.69391 0.599563 2.16007 0.00720555 122 4 1 7.14655e-07 
-0.221768 -0.409465 -2.2802 0.0025 0.698614 0.605261 2.16592 0.00715703 123 4 1 7.16522e-07 
-0.218202 -0.402056 -2.30365 0.0025 0.703331 0.61099 2.17176 0.00710903 124 4 1 7.13762e-07 
-0.214659 -0.394649 -2.31044 0.0025 0.708062 0.61675 2.17759 0.00706153 125 4 1 6.71241e-07 
-0.21114 -0.387312 -2.29812 0.0025 0.71278 0.622511 2.18338 0.00701479 126 4 1 6.64832e-07 
-0.207644 -0.380046 -2.30777 0.0025 0.717486 0.628273 2.18913 0.00696878 127 4 1 6.80511e-07 
-0.204171 -0.372782 -2.32187 0.0025 0.722199 0.634058 2.19487 0.0069233 128 4 1 6.58728e-07 
-0.200721 -0.365578 -2.31625 0.0025 0.726908 0.639853 2.20059 0.00687845 129 4 1 6.47376e-07 
-0.197293 -0.3584 -2.32547 0.0025 0.73161 0.645655 2.20627 0.00683425 130 4 1 6.32086e-07 
-0.193887 -0.351301 -2.31493 0.0025 0.7363 0.651456 2.21192 0.00679071 131 4 1 6.27732e-07 
-0.190502 -0.344266 -2.32738 0.0025 0.740981 0.657263 2.21753 0.00674781 132 4 1 6.3745e-07 
-0.187139 -0.337236 -2.33685 0.0025 0.745667 0.663089 2.22313 0.00670541 133 4 1 6.13658e-07 
-0.183797 -0.330253 -2.33137 0.0025 0.750345 0.668918 2.2287 0.0066636 134 4 1 5.79893e-07 
-0.180475 -0.323339 -2.31405 0.0025 0.754995 0.67473 2.23421 0.00662256 135 4 1 5.86215e-07 
-0.177174 -0.316509 -2.32538 0.0025 0.759632 0.68054 2.23969 0.00658213 136 4 1 6.2391e-07 
-0.173893 -0.309659 -2.35616 0.0025 0.764289 0.686388 2.24517 0.00654203 137 4 1 6.051e-07 
-0.170632 -0.302803 -2.35184 0.0025 0.768955 0.692259 2.25064 0.00650233 138 4 1 5.41963e-07 
-0.167391 -0.296071 -2.32034 0.0025 0.773586 0.698103 2.25605 0.00646341 139 4 1 5.46466e-07 
-0.164168 -0.28941 -2.33211 0.0025 0.778193 0.703932 2.26142 0.00642515 140 4 1 5.89346e-07 
-0.160965 -0.282731 -2.35866 0.0025 0.782816 0.709794 2.26678 0.0063872 141 4 1 5.78721e-07 
-0.157781 -0.276064 -2.36223 0.0025 0.787452 0.715683 2.27214 0.0063496 142 4 1 5.30227e-07 
-0.154616 -0.26947 -2.33977 0.0025 0.792063 0.721557 2.27745 0.00631263 143 4 1 5.05814e-07 
-0.151468 -0.262963 -2.32727 0.0025 0.796641 0.727403 2.28271 0.00627636 144 4 1 5.42212e-07 
-0.148339 -0.25651 -2.3549 0.0025 0.801219 0.733264 2.28795 0.00624049 145 4 1 5.65466e-07 
-0.145228 -0.249992 -2.37402 0.0025 0.805823 0.739168 2.2932 0.00620484 146 4 1 5.38484e-07 
-0.142134 -0.243533 -2.37288 0.0025 0.810431 0.74509 2.29843 0.00616956 147 4 1 4.96312e-07 
-0.139058 -0.237123 -2.35058 0.0025 0.815012 0.750993 2.30362 0.00613488 148 4 1 4.75834e-07 
-0.135999 -0.230811 -2.33814 0.0025 0.819559 0.756866 2.30875 0.00610085 149 4 1 5.14881e-07 
-0.132957 -0.224527 -2.36915 0.0025 0.824109 0.762756 2.31387 0.00606716 150 4 1 5.27677e-07 
-0.129932 -0.218214 -2.3774 0.0025 0.828678 0.768683 2.31899 0.0060337 151 4 1 5.05446e-07 
-0.126924 -0.211937 -2.38412 0.0025 0.833249 0.774624 2.3241 0.00600061 152 4 1 4.65522e-07 
-0.123932 -0.205719 -2.35397 0.0025 0.837793 0.780543 2.32916 0.00596806 153 4 1 4.38652e-07 
-0.120956 -0.199612 -2.33889 0.0025 0.842296 0.786425 2.33416 0.00593616 154 4 1 4.82814e-07 
-0.117995 -0.193519 -2.36913 0.0025 0.846802 0.792322 2.33915 0.00590457 155 4 1 5.1928e-07 
-0.115051 -0.187381 -2.40151 0.0025 0.851345 0.798279 2.34416 0.00587306 156 4 1 5.04892e-07 
-0.112122 -0.181235 -2.41349 0.0025 0.85591 0.804276 2.34918 0.00584173 157 4 1 4.27459e-07 
-0.109209 -0.175162 -2.36 0.0025 0.860436 0.810234 2.35414 0.00581101 158 4 1 3.85483e-07 
-0.106311 -0.169267 -2.33227 0.0025 0.864896 0.816122 2.35901 0.00578104 159 4 1 4.51355e-07 
-0.103428 -0.163361 -2.3711 0.0025 0.869355 0.822022 2.36387 0.00575139 160 4 1 5.08883e-07 
-0.10056 -0.157408 -2.41764 0.0025 0.873867 0.828 2.36877 0.00572169 161 4 1 4.99548e-07 
-0.0977064 -0.151374 -2.44087 0.0025 0.878417 0.834038 2.3737 0.00569205 162 4 1 3.75177e-07 
-0.0948677 -0.145485 -2.34247 0.0025 0.882905 0.840007 2.37854 0.00566312 163 4 1 3.31065e-07 
-0.0920432 -0.139791 -2.32092 0.0025 0.887299 0.845869 2.38326 0.00563508 164 4 1 4.17081e-07 
-0.0892326 -0.134102 -2.34767 0.0025 0.89169 0.851741 2.38797 0.00560733 165 4 1 5.28079e-07 
-0.0864359 -0.12831 -2.46177 0.0025 0.896175 0.857743 2.39277 0.00557927 166 4 1 5.16546e-07 
-0.0836533 -0.122358 -2.46775 0.0025 0.900735 0.863853 2.39764 0.00555102 167 4 1 3.49162e-07 
-0.0808848 -0.116593 -2.37183 0.0025 0.905222 0.869882 2.40241 0.0055235 168 4 1 2.82269e-07 
-0.0781298 -0.11103 -2.30827 0.0025 0.909588 0.875762 2.40703 0.005497 169 4 1 3.34202e-07 
-0.0753878 -0.105603 -2.30341 0.0025 0.913899 0.881586 2.41158 0.00547107 170 4 1 5.30655e-07 
-0.0726587 -0.100001 -2.48927 0.0025 0.918327 0.887574 2.41625 0.00544468 171 4 1 5.31722e-07 
-0.069943 -0.0941617 -2.48078 0.0025 0.92287 0.893718 2.42103 0.00541788 172 4 1 3.07542e-07 
-0.0672407 -0.0885715 -2.36935 0.0025 0.927325 0.899761 2.4257 0.00539186 173 4 1 2.78534e-07 
-0.0645512 -0.0831545 -2.33911 0.0025 0.931663 0.905661 2.43023 0.00536675 174 4 1 2.73065e-07 
-0.061874 -0.0778775 -2.25157 0.0025 0.935913 0.911453 2.43466 0.00534238 175 4 1 3.80649e-07 
-0.0592088 -0.0727233 -2.36083 0.0025 0.940185 0.917296 2.43909 0.0053181 176 4 1 7.04026e-07 
-0.0565558 -0.0670642 -2.68141 0.0025 0.944736 0.92351 2.44382 0.00529248 177 4 1 4.25583e-07 
-0.0539162 -0.0613136 -2.41946 0.0025 0.949324 0.929776 2.44856 0.0052669 178 4 1 1.57928e-08 
-0.0512889 -0.0563927 -2.18236 0.0025 0.953588 0.935643 2.45294 0.00524336 179 4 1 4.59325e-07 
-0.0486729 -0.0513823 -2.5438 0.0025 0.957908 0.941593 2.45738 0.00521971 180 4 1 5.84167e-07 
-0.0460692 -0.0459625 -2.50827 0.0025 0.962425 0.947794 2.46202 0.00519521 181 4 1 8.03118e-08 
-0.0434776 -0.0413042 -2.14504 0.0025 0.966717 0.953726 2.46639 0.00517215 182 4 1 4.74255e-07 
-0.040897 -0.0368023 -2.61413 0.0025 0.971103 0.959819 2.47086 0.00514878 183 4 1 1.09199e-06 
-0.0383288 -0.0312447 -3.11019 0.0025 0.976092 0.966702 2.47595 0.00512247 184 4 1 2.34061e-07 
-0.0357745 -0.0261466 -2.39807 0.0025 0.980925 0.973368 2.48086 0.00509723 185 4 1 -6.01905e-07 
-0.0332315 -0.0231017 -1.70173 0.0025 0.984888 0.978917 2.48482 0.00507672 186 4 1 6.29377e-07 
-0.0306977 -0.0200853 -2.74219 0.0025 0.989119 0.984876 2.48907 0.005055 187 4 1 2.10467e-06 
-0.0281765 -0.0147584 -4.03314 0.0025 0.994842 0.992823 2.49488 0.00502592 188 4 1 6.66482e-07 
-0.0256718 -0.00928535 -2.99738 0.0025 1.00071 1.00092 2.50078 0.00499647 189 4 1 -1.66846e-06 
-0.02318 -0.00763201 -1.08894 0.0025 1.00467 1.00652 2.50467 0.00497674 190 4 1 -8.23155e-08 
-0.020695 -0.00753598 -2.2566 0.0025 1.00822 1.01164 2.50815 0.00495925 191 4 1 3.12289e-06 
-0.0182207 -0.00289947 -4.89421 0.0025 1.01417 1.01996 2.51417 0.00493012 192 4 1 8.51333e-07 
-0.0157648 0.00224103 -2.97772 0.0025 1.02054 1.02878 2.52051 0.00489938 193 4 1 -2.11427e-06 
-0.0133213 0.00288218 -1.40338 0.0025 1.02445 1.03436 2.52431 0.00488067 194 4 1 -6.0305e-07 
-0.0108842 0.00206387 -1.4699 0.0025 1.02734 1.03853 2.52714 0.00486693 195 4 1 8.12998e-07 
-0.00845438 0.00315557 -2.37322 0.0025 1.03079 1.04338 2.53057 0.00485063 196 4 1 -1.90732e-07 
-0.00603351 0.00358171 -1.55655 0.0025 1.03387 1.0477 2.53361 0.00483622 197 4 1 -1.04886e-06 
-0.00361816 0.00273345 -0.904104 0.0025 1.03568 1.05029 2.53538 0.00482775 198 4 1 -8.04671e-07 
-0.00120575 0.00101492 -0.280473 0.0025 1.0365 1.05147 2.53619 0.00482391 199 3 1 -6.6523e-07 
0.00120575 -0.00101492 0.280473 0.0025 1.0365 1.05147 2.53619 0.00482391 200 3 1 -6.6523e-07 
0.00361816 -0.00273345 0.904104 0.0025 1.03568 1.05029 2.53538 0.00482775 201 4 1 -8.04671e-07 
0.00603351 -0.00358171 1.55655 0.0025 1.03387 1.0477 2.53361 0.00483622 202 4 1 -1.04886e-06 
0.00845438 -0.00315557 2.37322 0.0025 1.03079 1.04338 2.53057 0.00485063 203 4 1 -1.90732e-07 
0.0108842 -0.00206387 1.4699 0.0025 1.02734 1.03853 2.52714 0.00486693 204 4 1 8.12998e-07 
0.0133213 -0.00288218 1.40338 0.0025 1.02445 1.03436 2.52431 0.00488067 205 4 1 -6.0305e-07 
0.0157648 -0.00224103 2.97772 0.0025 1.02054 1.02878 2.52051 0.00489938 206 4 1 -2.11427e-06 
0.0182207 0.00289947 4.89421 0.0025 1.01417 1.01996 2.51417 0.00493012 207 4 1 8.51333e-07 
0.020695 0.00753598 2.2566 0.0025 1.00822 1.01164 2.50815 0.00495925 208 4 1 3.12289e-06 
0.02318 0.00763201 1.08894 0.0025 1.00467 1.00652 2.50467 0.00497674 209 4 1 -8.23155e-08 
0.0256718 0.00928535 2.99738 0.0025 1.00071 1.00092 2.50078 0.00499647 210 4 1 -1.66846e-06 
0.0281765 0.0147584 4.03314 0.0025 0.994842 0.992823 2.49488 0.00502592 211 4 1 6.66482e-07 
