# Time [s]: 0.408243
# Columns: pos [m], vel [m/s], acc [m/s^2], mass [kg], dens [kg/m^3], pres [Pa], ene [J/kg], sml [m], id, neighbor, alpha, gradh, ...additional?
1.22744 -0.673077 6.05614e-05 0.0025 0.511058 0.432735 2.15251 0.00978362 0 4 1 -0.000134225 
1.23222 -0.673078 6.34741e-05 0.0025 0.536916 0.426198 1.95005 0.00931245 1 4 1 0.000179253 
1.23676 -0.673078 6.70239e-05 0.0025 0.548246 0.430869 1.96851 0.00911999 2 3 1 -1.90585e-05 
1.24134 -0.673079 7.12445e-05 0.0025 0.545981 0.429204 1.96466 0.00915782 3 5 1 3.48563e-06 
1.24592 -0.67308 7.5594e-05 0.0025 0.54638 0.42936 1.96459 0.00915114 4 4 1 -1.38688e-07 
1.25049 -0.67308 7.9511e-05 0.0025 0.546391 0.42933 1.96436 0.00915096 5 4 1 1.4373e-07 
1.25507 -0.673081 8.27535e-05 0.0025 0.546414 0.429329 1.9643 0.00915057 6 4 1 -3.50734e-09 
1.25964 -0.673082 8.56339e-05 0.0025 0.546427 0.429326 1.96424 0.00915034 7 4 1 8.24099e-09 
1.26422 -0.673083 8.89439e-05 0.0025 0.546442 0.429326 1.96419 0.00915011 8 4 1 4.77024e-09 
1.26879 -0.673084 9.35726e-05 0.0025 0.546454 0.429326 1.96414 0.0091499 9 4 1 5.48008e-09 
1.27337 -0.673085 0.000100004 0.0025 0.546466 0.429325 1.9641 0.0091497 10 4 1 -2.23899e-09 
1.27794 -0.673086 0.000107972 0.0025 0.546477 0.429325 1.96406 0.00914952 11 4 1 4.72629e-09 
1.28252 -0.673087 0.000116453 0.0025 0.546487 0.429325 1.96402 0.00914934 12 4 1 2.84821e-09 
1.28709 -0.673088 0.00012396 0.0025 0.546496 0.429324 1.96399 0.00914919 13 4 1 3.57289e-09 
1.29167 -0.673089 0.00012888 0.0025 0.546504 0.429324 1.96396 0.00914906 14 4 1 2.13022e-09 
1.29624 -0.673091 0.000129555 0.0025 0.546512 0.429324 1.96393 0.00914894 15 4 1 -1.55586e-09 
1.30082 -0.673092 0.00012396 0.0025 0.546519 0.429323 1.9639 0.00914881 16 4 1 4.95079e-09 
1.30539 -0.673094 0.000109137 0.0025 0.546525 0.429323 1.96388 0.00914871 17 4 1 1.56117e-09 
1.30996 -0.673096 8.09189e-05 0.0025 0.546531 0.429323 1.96385 0.00914861 18 4 1 -1.07221e-09 
1.31454 -0.673098 3.45698e-05 0.0025 0.546537 0.429322 1.96383 0.00914852 19 4 1 2.87502e-09 
1.31911 -0.6731 -3.32929e-05 0.0025 0.546542 0.429322 1.96381 0.00914843 20 4 1 1.40529e-09 
1.32369 -0.673103 -0.000121845 0.0025 0.546547 0.429322 1.96379 0.00914834 21 4 1 1.48348e-09 
1.32826 -0.673107 -0.00022346 0.0025 0.546552 0.429323 1.96378 0.00914827 22 4 1 1.3838e-09 
1.33284 -0.673111 -0.000322975 0.0025 0.546556 0.429323 1.96376 0.00914819 23 4 1 1.49851e-10 
1.33741 -0.673116 -0.000399941 0.0025 0.546561 0.429324 1.96375 0.00914811 24 4 1 1.74388e-09 
1.34198 -0.673122 -0.000433635 0.0025 0.546566 0.429325 1.96374 0.00914803 25 4 1 8.96685e-10 
1.34656 -0.673127 -0.000409098 0.0025 0.54657 0.429326 1.96373 0.00914796 26 4 1 -3.43334e-10 
1.35113 -0.673133 -0.000321744 0.0025 0.546574 0.429327 1.96372 0.00914789 27 4 1 1.08658e-09 
1.35571 -0.673139 -0.000178664 0.0025 0.546578 0.429327 1.96371 0.00914783 28 4 1 5.90602e-10 
1.36028 -0.673144 3.72629e-06 0.0025 0.546581 0.429328 1.9637 0.00914778 29 4 1 -1.1443e-09 
1.36485 -0.673149 0.000204527 0.0025 0.546583 0.429327 1.96369 0.00914773 30 4 1 7.35843e-11 
1.36943 -0.673153 0.000403755 0.0025 0.546586 0.429327 1.96368 0.0091477 31 4 1 1.52687e-09 
1.374 -0.673157 0.000586532 0.0025 0.546587 0.429326 1.96367 0.00914768 32 4 1 -1.26869e-09 
1.37857 -0.67316 0.000745003 0.0025 0.546588 0.429324 1.96366 0.00914767 33 4 1 -1.1885e-09 
1.38315 -0.673164 0.000877836 0.0025 0.546588 0.429322 1.96365 0.00914766 34 3 1 1.81555e-09 
1.38772 -0.673167 0.00098806 0.0025 0.546588 0.42932 1.96364 0.00914766 35 4 1 -4.53746e-10 
1.3923 -0.67317 0.00108057 0.0025 0.546587 0.429317 1.96363 0.00914767 36 4 1 -1.07337e-09 
1.39687 -0.673173 0.00116059 0.0025 0.546587 0.429314 1.96361 0.00914768 37 4 1 1.27216e-09 
1.40144 -0.673176 0.00123337 0.0025 0.546586 0.429311 1.9636 0.0091477 38 4 1 -3.14473e-11 
1.40602 -0.67318 0.00130434 0.0025 0.546584 0.429308 1.96359 0.00914772 39 4 1 -8.42061e-10 
1.41059 -0.673184 0.00137843 0.0025 0.546583 0.429305 1.96358 0.00914774 40 4 1 6.02678e-10 
1.41517 -0.673189 0.00145865 0.0025 0.546581 0.429301 1.96357 0.00914778 41 4 1 3.24041e-10 
1.41974 -0.673194 0.00154513 0.0025 0.546579 0.429297 1.96356 0.00914781 42 4 1 -7.53143e-10 
1.42431 -0.6732 0.00163626 0.0025 0.546576 0.429293 1.96355 0.00914785 43 4 1 -1.41748e-10 
1.42889 -0.673206 0.00173157 0.0025 0.546574 0.429288 1.96354 0.0091479 44 4 1 8.2202e-10 
1.43346 -0.673213 0.00183364 0.0025 0.546571 0.429284 1.96353 0.00914795 45 4 1 -5.32577e-10 
1.43804 -0.67322 0.00194667 0.0025 0.546567 0.429279 1.96352 0.009148 46 4 1 -9.1121e-10 
1.44261 -0.673228 0.00207283 0.0025 0.546564 0.429274 1.96351 0.00914806 47 4 1 3.65131e-10 
1.44718 -0.673237 0.00221112 0.0025 0.54656 0.429268 1.9635 0.00914813 48 4 1 1.31628e-11 
1.45176 -0.673247 0.00236199 0.0025 0.546555 0.429262 1.96349 0.00914821 49 4 1 -9.15948e-10 
1.45633 -0.673258 0.0025343 0.0025 0.54655 0.429256 1.96348 0.00914829 50 4 1 -6.68756e-10 
1.46091 -0.67327 0.00274538 0.0025 0.546545 0.429249 1.96346 0.00914838 51 4 1 1.62789e-10 
1.46548 -0.673283 0.00300949 0.0025 0.546539 0.429241 1.96345 0.00914848 52 4 1 -6.94693e-10 
1.47005 -0.673297 0.00332298 0.0025 0.546533 0.429233 1.96344 0.00914859 53 4 1 -1.56597e-09 
1.47463 -0.673312 0.00366251 0.0025 0.546525 0.429224 1.96342 0.00914871 54 4 1 -7.94477e-10 
1.4792 -0.673328 0.00400368 0.0025 0.546517 0.429214 1.96341 0.00914885 55 4 1 -2.1945e-10 
1.48378 -0.673346 0.00434699 0.0025 0.546508 0.429203 1.96339 0.009149 56 4 1 -1.29219e-09 
1.48835 -0.673366 0.004727 0.0025 0.546498 0.429191 1.96337 0.00914917 57 4 1 -1.81173e-09 
1.49293 -0.673388 0.00519318 0.0025 0.546487 0.429178 1.96335 0.00914935 58 4 1 -8.29187e-10 
1.4975 -0.673412 0.00577588 0.0025 0.546474 0.429163 1.96333 0.00914956 59 4 1 -1.41248e-09 
-0.497924 -0.673438 0.00646438 0.0025 0.54646 0.429147 1.96331 0.00914979 60 4 1 -2.40113e-09 
-0.493349 -0.673467 0.00721518 0.0025 0.546445 0.429129 1.96328 0.00915006 61 4 1 -2.40515e-09 
-0.488774 -0.673499 0.00798656 0.0025 0.546427 0.429109 1.96325 0.00915035 62 4 1 -1.87108e-09 
-0.484199 -0.673534 0.00877831 0.0025 0.546408 0.429087 1.96322 0.00915068 63 4 1 -2.35256e-09 
-0.479623 -0.673574 0.00964829 0.0025 0.546386 0.429063 1.96319 0.00915104 64 4 1 -3.05385e-09 
-0.475048 -0.67362 0.0106839 0.0025 0.546362 0.429036 1.96315 0.00915144 65 4 1 -3.11456e-09 
-0.470472 -0.673671 0.0119404 0.0025 0.546335 0.429006 1.96311 0.00915189 66 4 1 -3.59067e-09 
-0.465896 -0.673728 0.013407 0.0025 0.546305 0.428972 1.96306 0.00915239 67 4 1 -4.36837e-09 
-0.461319 -0.673791 0.0150444 0.0025 0.546272 0.428934 1.96301 0.00915295 68 4 1 -4.87596e-09 
-0.456743 -0.673861 0.0168382 0.0025 0.546234 0.428892 1.96295 0.00915359 69 4 1 -4.94998e-09 
-0.452166 -0.673939 0.0187704 0.0025 0.546192 0.428845 1.96289 0.00915429 70 4 1 -5.35723e-09 
-0.447588 -0.674026 0.0207554 0.0025 0.546145 0.428793 1.96282 0.00915507 71 4 1 -5.50142e-09 
-0.443011 -0.674121 0.0226892 0.0025 0.546094 0.428737 1.96274 0.00915593 72 4 1 -4.91056e-09 
-0.438432 -0.674226 0.0245542 0.0025 0.546038 0.428675 1.96266 0.00915687 73 4 1 -4.43089e-09 
-0.433854 -0.674341 0.0263655 0.0025 0.545979 0.428609 1.96257 0.00915787 74 4 1 -4.00241e-09 
-0.429275 -0.674463 0.0280838 0.0025 0.545916 0.428539 1.96248 0.00915892 75 4 1 -3.14857e-09 
-0.424695 -0.674591 0.0296288 0.0025 0.54585 0.428466 1.96238 0.00916003 76 4 1 -1.78338e-09 
-0.420115 -0.674721 0.0306165 0.0025 0.545782 0.428392 1.96228 0.00916116 77 4 1 6.49046e-10 
-0.415534 -0.674849 0.030338 0.0025 0.545715 0.428318 1.96218 0.00916229 78 4 1 4.39944e-09 
-0.410952 -0.674972 0.028531 0.0025 0.545651 0.428247 1.96209 0.00916336 79 4 1 8.86908e-09 
-0.40637 -0.675086 0.0251368 0.0025 0.545595 0.428185 1.96201 0.00916431 80 4 1 1.35768e-08 
-0.401788 -0.675185 0.0202524 0.0025 0.545549 0.428134 1.96194 0.00916508 81 4 1 1.65711e-08 
-0.397205 -0.67526 0.0146217 0.0025 0.545517 0.428099 1.96189 0.00916561 82 4 1 2.06575e-08 
-0.392622 -0.675306 0.00780215 0.0025 0.545503 0.428083 1.96187 0.00916586 83 5 1 2.29141e-08 
-0.388039 -0.675293 -0.00222724 0.0025 0.545507 0.428088 1.96187 0.00916579 84 4 1 3.19907e-08 
-0.383457 -0.675266 -0.00947594 0.0025 0.545539 0.428126 1.96192 0.00916525 85 4 1 1.21132e-07 
-0.378874 -0.67507 -0.082132 0.0025 0.545672 0.428278 1.96211 0.00916301 86 4 1 2.83502e-07 
-0.374294 -0.674409 -0.220677 0.0025 0.546034 0.428678 1.96263 0.00915694 87 4 1 3.71648e-07 
-0.369717 -0.673167 -0.343896 0.0025 0.546685 0.429395 1.96356 0.00914603 88 4 1 4.11199e-07 
-0.365148 -0.671384 -0.47484 0.0025 0.547642 0.430452 1.96493 0.00913005 89 4 1 5.78453e-07 
-0.360587 -0.668864 -0.69167 0.0025 0.549001 0.431955 1.96688 0.00910746 90 4 1 8.44733e-07 
-0.35604 -0.665244 -0.979415 0.0025 0.550906 0.434057 1.96961 0.00907596 91 4 1 1.00571e-06 
-0.351511 -0.660453 -1.23677 0.0025 0.553393 0.436798 1.97316 0.00903517 92 4 1 1.00184e-06 
-0.347005 -0.654749 -1.42469 0.0025 0.556363 0.440077 1.97739 0.00898694 93 4 1 9.04087e-07 
-0.342524 -0.648452 -1.52981 0.0025 0.559665 0.443733 1.98208 0.00893391 94 4 1 8.34983e-07 
-0.338071 -0.641826 -1.61341 0.0025 0.563192 0.447652 1.98706 0.00887796 95 4 1 8.67763e-07 
-0.333646 -0.634871 -1.70729 0.0025 0.56692 0.451807 1.99231 0.00881958 96 4 1 9.56497e-07 
-0.329251 -0.627546 -1.81807 0.0025 0.570867 0.456217 1.99785 0.00875861 97 4 1 1.04065e-06 
-0.324887 -0.619824 -1.92843 0.0025 0.575042 0.460895 2.00368 0.00869502 98 4 1 1.09391e-06 
-0.320556 -0.611736 -2.032 0.0025 0.579434 0.465828 2.00979 0.00862912 99 4 1 1.08327e-06 
-0.316258 -0.603382 -2.09535 0.0025 0.583993 0.470964 2.0161 0.00856175 100 4 1 1.03331e-06 
-0.311994 -0.594885 -2.13723 0.0025 0.588655 0.476234 2.02252 0.00849394 101 4 1 9.75952e-07 
-0.307764 -0.58637 -2.15355 0.0025 0.593367 0.481577 2.02898 0.00842649 102 4 1 8.95664e-07 
-0.303568 -0.577925 -2.14285 0.0025 0.598075 0.486933 2.03541 0.00836015 103 4 1 8.16683e-07 
-0.299404 -0.569631 -2.11679 0.0025 0.602736 0.492253 2.04174 0.0082955 104 4 1 7.8054e-07 
-0.295272 -0.561488 -2.10313 0.0025 0.607343 0.497529 2.04796 0.00823257 105 4 1 7.57532e-07 
-0.291171 -0.553471 -2.0847 0.0025 0.6119 0.502763 2.0541 0.00817126 106 4 1 7.24465e-07 
-0.2871 -0.545593 -2.06591 0.0025 0.616403 0.507949 2.06013 0.00811157 107 4 1 6.87456e-07 
-0.283059 -0.537884 -2.03846 0.0025 0.620846 0.513083 2.06606 0.00805352 108 4 1 6.73136e-07 
-0.279047 -0.530304 -2.02866 0.0025 0.625237 0.51817 2.07189 0.00799697 109 4 1 6.65114e-07 
-0.275062 -0.52283 -2.01443 0.0025 0.629587 0.523223 2.07764 0.00794172 110 4 1 6.34505e-07 
-0.271105 -0.515475 -1.99377 0.0025 0.63389 0.528237 2.08331 0.00788781 111 4 1 6.28159e-07 
-0.267174 -0.508241 -1.98925 0.0025 0.638156 0.533222 2.08891 0.00783508 112 4 1 6.40064e-07 
-0.26327 -0.501053 -1.99242 0.0025 0.642405 0.538198 2.09446 0.00778326 113 4 1 6.11337e-07 
-0.259391 -0.493966 -1.9707 0.0025 0.646627 0.543157 2.09995 0.00773244 114 4 1 6.18013e-07 
-0.255537 -0.486938 -1.98607 0.0025 0.650835 0.548114 2.10541 0.00768243 115 4 1 6.62868e-07 
-0.251709 -0.479898 -2.01057 0.0025 0.655068 0.553111 2.11087 0.00763279 116 4 1 6.55264e-07 
-0.247904 -0.472854 -2.01565 0.0025 0.659321 0.558145 2.11635 0.00758355 117 4 1 6.5857e-07 
-0.244125 -0.465826 -2.03816 0.0025 0.663597 0.56322 2.12182 0.00753469 118 4 1 6.91665e-07 
-0.24037 -0.458752 -2.07041 0.0025 0.667918 0.568362 2.12734 0.00748595 119 4 1 7.22905e-07 
-0.236639 -0.451608 -2.11347 0.0025 0.672302 0.573592 2.13291 0.00743713 120 4 1 7.3338e-07 
-0.232932 -0.444388 -2.14568 0.0025 0.676749 0.578909 2.13855 0.00738827 121 4 1 7.12552e-07 
-0.229251 -0.437154 -2.16122 0.0025 0.681236 0.584289 2.14421 0.0073396 122 4 1 7.06437e-07 
-0.225593 -0.429912 -2.1846 0.0025 0.685756 0.589724 2.14988 0.00729123 123 4 1 7.28013e-07 
-0.221959 -0.422624 -2.22073 0.0025 0.69032 0.595226 2.1556 0.00724302 124 4 1 7.13442e-07 
-0.21835 -0.415316 -2.22943 0.0025 0.694917 0.600781 2.16133 0.00719511 125 4 1 6.78158e-07 
-0.214764 -0.408053 -2.232 0.0025 0.699518 0.606358 2.16704 0.00714778 126 4 1 6.82017e-07 
-0.211202 -0.400807 -2.25123 0.0025 0.70413 0.611962 2.17274 0.00710096 127 4 1 6.84222e-07 
-0.207663 -0.393565 -2.26343 0.0025 0.708757 0.617598 2.17844 0.0070546 128 4 1 6.41741e-07 
-0.204147 -0.386414 -2.24671 0.0025 0.713372 0.623235 2.1841 0.00700896 129 4 1 6.36998e-07 
-0.200654 -0.379305 -2.26194 0.0025 0.717977 0.628874 2.18973 0.00696402 130 4 1 6.42422e-07 
-0.197183 -0.372217 -2.26176 0.0025 0.722582 0.634528 2.19534 0.00691963 131 4 1 6.3051e-07 
-0.193734 -0.365174 -2.27065 0.0025 0.727184 0.640193 2.20092 0.00687584 132 4 1 6.26431e-07 
-0.190307 -0.358158 -2.27441 0.0025 0.731785 0.645871 2.20648 0.00683261 133 4 1 5.989e-07 
-0.186902 -0.351221 -2.26297 0.0025 0.73637 0.651543 2.212 0.00679006 134 4 1 5.93889e-07 
-0.183517 -0.344327 -2.27008 0.0025 0.740943 0.657215 2.21748 0.00674816 135 4 1 6.07026e-07 
-0.180153 -0.337468 -2.28192 0.0025 0.745518 0.662903 2.22295 0.00670675 136 4 1 5.95559e-07 
-0.17681 -0.330627 -2.28358 0.0025 0.750093 0.668604 2.2284 0.00666584 137 4 1 5.63861e-07 
-0.173487 -0.323853 -2.26923 0.0025 0.754648 0.674295 2.2338 0.00662561 138 4 1 5.48591e-07 
-0.170185 -0.317172 -2.26358 0.0025 0.759179 0.679972 2.23915 0.00658606 139 4 1 5.84763e-07 
-0.166901 -0.310494 -2.29608 0.0025 0.763721 0.685674 2.2445 0.00654689 140 4 1 5.94994e-07 
-0.163638 -0.303785 -2.3072 0.0025 0.768285 0.691415 2.24986 0.006508 141 4 1 5.36519e-07 
-0.160393 -0.297168 -2.27987 0.0025 0.772828 0.697144 2.25517 0.00646975 142 4 1 5.08591e-07 
-0.157168 -0.290644 -2.27 0.0025 0.777334 0.702844 2.26042 0.00643224 143 4 1 5.50599e-07 
-0.153961 -0.284137 -2.30016 0.0025 0.781845 0.708561 2.26566 0.00639513 144 4 1 5.57816e-07 
-0.150773 -0.277624 -2.30421 0.0025 0.786372 0.71431 2.27089 0.00635832 145 4 1 5.32664e-07 
-0.147603 -0.271129 -2.30882 0.0025 0.790895 0.720067 2.27611 0.00632195 146 4 1 4.89143e-07 
-0.144451 -0.264748 -2.27354 0.0025 0.795386 0.725798 2.28127 0.00628626 147 4 1 4.90515e-07 
-0.141316 -0.258426 -2.28817 0.0025 0.799854 0.731514 2.28639 0.00625114 148 4 1 5.35482e-07 
-0.138199 -0.252089 -2.31266 0.0025 0.804341 0.737265 2.29151 0.00621627 149 4 1 5.29149e-07 
-0.1351 -0.245759 -2.32154 0.0025 0.808844 0.743049 2.29663 0.00618166 150 4 1 5.00308e-07 
-0.132018 -0.239444 -2.31649 0.0025 0.813341 0.748837 2.30173 0.00614749 151 4 1 4.58061e-07 
-0.128952 -0.233238 -2.28666 0.0025 0.817803 0.754596 2.30677 0.00611394 152 4 1 4.67161e-07 
-0.125904 -0.227088 -2.30114 0.0025 0.822245 0.760342 2.31177 0.00608091 153 4 1 4.97418e-07 
-0.122871 -0.220942 -2.31492 0.0025 0.826699 0.766114 2.31677 0.00604815 154 4 1 4.98713e-07 
-0.119856 -0.214797 -2.33266 0.0025 0.831167 0.771916 2.32177 0.00601564 155 4 1 4.78617e-07 
-0.116856 -0.208669 -2.32704 0.0025 0.835634 0.777729 2.32676 0.00598348 156 4 1 4.26237e-07 
-0.113872 -0.202635 -2.29172 0.0025 0.840063 0.783505 2.33168 0.00595194 157 4 1 4.31141e-07 
-0.110904 -0.196676 -2.30032 0.0025 0.844464 0.789259 2.33656 0.00592092 158 4 1 4.64353e-07 
-0.107951 -0.190718 -2.3134 0.0025 0.848873 0.795036 2.34143 0.00589016 159 4 1 4.97269e-07 
-0.105014 -0.184737 -2.36079 0.0025 0.853318 0.80087 2.34633 0.00585948 160 4 1 4.74865e-07 
-0.102092 -0.178711 -2.34972 0.0025 0.85778 0.806736 2.35123 0.005829 161 4 1 3.90128e-07 
-0.0991846 -0.172835 -2.30095 0.0025 0.862191 0.812548 2.35606 0.00579918 162 4 1 3.83684e-07 
-0.0962923 -0.167046 -2.29314 0.0025 0.866551 0.818309 2.36081 0.00577 163 4 1 4.20454e-07 
-0.0934145 -0.161308 -2.30192 0.0025 0.870906 0.824075 2.36555 0.00574115 164 4 1 5.01e-07 
-0.0905511 -0.155478 -2.39056 0.0025 0.875322 0.82993 2.37034 0.00571218 165 4 1 4.68297e-07 
-0.0877023 -0.149595 -2.36148 0.0025 0.879771 0.835837 2.37516 0.0056833 166 4 1 3.58541e-07 
-0.0848678 -0.143864 -2.31538 0.0025 0.884157 0.841675 2.37989 0.00565511 167 4 1 3.25802e-07 
-0.0820472 -0.138266 -2.26169 0.0025 0.888463 0.847422 2.38451 0.00562769 168 4 1 3.79622e-07 
-0.0792401 -0.132762 -2.29486 0.0025 0.892751 0.853159 2.38911 0.00560067 169 4 1 5.20135e-07 
-0.0764465 -0.12708 -2.41484 0.0025 0.89714 0.859036 2.3938 0.00557327 170 4 1 4.84046e-07 
-0.0736668 -0.121322 -2.39817 0.0025 0.901597 0.865012 2.39855 0.00554572 171 4 1 3.77429e-07 
-0.0709007 -0.115677 -2.3761 0.0025 0.906018 0.870952 2.40325 0.00551866 172 4 1 2.84191e-07 
-0.0681481 -0.110223 -2.2597 0.0025 0.910333 0.876765 2.40782 0.0054925 173 4 1 2.94217e-07 
-0.0654082 -0.105013 -2.26385 0.0025 0.914568 0.882491 2.41229 0.00546706 174 4 1 5.34555e-07 
-0.062681 -0.0996297 -2.45598 0.0025 0.918936 0.8884 2.41689 0.00544108 175 4 1 5.65396e-07 
-0.0599671 -0.0940577 -2.48695 0.0025 0.923459 0.894519 2.42165 0.00541442 176 4 1 3.66185e-07 
-0.0572665 -0.088739 -2.40091 0.0025 0.927952 0.900618 2.42635 0.00538821 177 4 1 3.88094e-07 
-0.0545788 -0.0835984 -2.46028 0.0025 0.932418 0.906692 2.43102 0.0053624 178 4 1 3.45656e-07 
-0.0519041 -0.0786575 -2.33868 0.0025 0.936845 0.912723 2.43563 0.00533706 179 4 1 3.64874e-07 
-0.0492418 -0.0741186 -2.40529 0.0025 0.941265 0.918775 2.44021 0.005312 180 4 1 8.26656e-07 
-0.0465921 -0.0692451 -2.85607 0.0025 0.946049 0.92532 2.44517 0.00528514 181 4 1 7.78112e-07 
-0.0439566 -0.0641223 -2.82495 0.0025 0.951132 0.932264 2.45043 0.00525689 182 4 1 2.20082e-07 
-0.0413351 -0.0598982 -2.49569 0.0025 0.956016 0.938979 2.45544 0.00523004 183 4 1 4.86568e-07 
-0.0387265 -0.0561499 -2.81027 0.0025 0.960907 0.945731 2.46045 0.00520342 184 4 1 9.39671e-07 
-0.0361317 -0.0519374 -3.10441 0.0025 0.966194 0.953009 2.46587 0.00517495 185 4 1 4.98974e-07 
-0.0335515 -0.0481696 -2.78669 0.0025 0.971502 0.960335 2.47128 0.00514667 186 4 1 3.31121e-07 
-0.030985 -0.0452532 -2.7986 0.0025 0.976668 0.967518 2.47651 0.00511945 187 4 1 1.10868e-06 
-0.028432 -0.041772 -3.5241 0.0025 0.982317 0.975368 2.48224 0.00509001 188 4 1 1.06508e-06 
-0.0258949 -0.0375699 -3.48203 0.0025 0.988372 0.983753 2.48838 0.00505882 189 4 1 -1.18767e-07 
-0.0233732 -0.0345372 -2.59184 0.0025 0.993806 0.99131 2.49383 0.00503116 190 4 1 -4.344e-07 
-0.0208637 -0.0331171 -2.17518 0.0025 0.998415 0.997812 2.4984 0.00500794 191 4 1 1.25369e-06 
-0.0183652 -0.0306005 -3.67356 0.0025 1.0037 1.00526 2.5037 0.00498156 192 4 1 1.93968e-06 
-0.0158821 -0.025462 -4.18096 0.0025 1.01019 1.01429 2.51023 0.00494957 193 4 1 -4.29209e-07 
-0.0134156 -0.0215405 -2.38798 0.0025 1.01576 1.02205 2.51577 0.00492242 194 4 1 -2.01929e-06 
-0.0109597 -0.0208169 -0.757083 0.0025 1.01905 1.02677 2.51895 0.00490654 195 4 1 3.72918e-07 
-0.00850904 -0.0188891 -2.65809 0.0025 1.02231 1.03144 2.52217 0.00489091 196 4 1 1.71148e-06 
-0.00606874 -0.0120229 -3.12657 0.0025 1.02683 1.03774 2.52673 0.00486938 197 4 1 -1.39731e-06 
-0.00363963 -0.00513214 -0.557618 0.0025 1.02984 1.04194 2.5297 0.00485512 198 4 1 -2.3981e-06 
-0.00121362 -0.00131589 0.614151 0.0025 1.03024 1.04259 2.53001 0.00485326 199 3 1 -1.12866e-07 
0.00121362 0.00131589 -0.614151 0.0025 1.03024 1.04259 2.53001 0.00485326 200 3 1 -1.12866e-07 
0.00363963 0.00513214 0.557618 0.0025 1.02984 1.04194 2.5297 0.00485512 201 4 1 -2.3981e-06 
0.00606874 0.0120229 3.12657 0.0025 1.02683 1.03774 2.52673 0.00486938 202 4 1 -1.39731e-06 
0.00850904 0.0188891 2.65809 0.0025 1.02231 1.03144 2.52217 0.00489091 203 4 1 1.71148e-06 
0.0109597 0.0208169 0.757083 0.0025 1.01905 1.02677 2.51895 0.00490654 204 4 1 3.72918e-07 
0.0134156 0.0215405 2.38798 0.0025 1.01576 1.02205 2.51577 0.00492242 205 4 1 -2.01929e-06 
0.0158821 0.025462 4.18096 0.0025 1.01019 1.01429 2.51023 0.00494957 206 4 1 -4.29209e-07 
0.0183652 0.0306005 3.67356 0.0025 1.0037 1.00526 2.5037 0.00498156 207 4 1 1.93968e-06 
0.0208637 0.0331171 2.17518 0.0025 0.998415 0.997812 2.4984 0.00500794 208 4 1 1.25369e-06 
0.0233732 0.0345372 2.59184 0.0025 0.993806 0.99131 2.49383 0.00503116 209 4 1 -4.344e-07 
0.0258949 0.0375699 3.48203 0.0025 0.988372 0.983753 2.48838 0.00505882 210 4 1 -1.18767e-07 
0.028432 0.041772 3.5241 0.0025 0.982317 0.975368 2.48224 0.00509001 211 4 1 1.06508e-06 
