# Time [s]: 0.407022
# Columns: pos [m], vel [m/s], acc [m/s^2], mass [kg], dens [kg/m^3], pres [Pa], ene [J/kg], sml [m], id, neighbor, alpha, gradh, ...additional?
1.22826 -0.673077 6.3063e-05 0.0025 0.511058 0.432735 2.15251 0.00978363 0 4 1 -0.000134225 
1.23304 -0.673078 6.59202e-05 0.0025 0.536916 0.426198 1.95005 0.00931245 1 4 1 0.000179253 
1.23758 -0.673078 6.94474e-05 0.0025 0.548246 0.430868 1.96851 0.00911999 2 3 1 -1.90585e-05 
1.24216 -0.673079 7.37726e-05 0.0025 0.545981 0.429204 1.96466 0.00915782 3 5 1 3.48563e-06 
1.24674 -0.67308 7.84137e-05 0.0025 0.54638 0.42936 1.96459 0.00915114 4 4 1 -1.38688e-07 
1.25131 -0.67308 8.27645e-05 0.0025 0.546391 0.42933 1.96436 0.00915096 5 4 1 1.43729e-07 
1.25589 -0.673081 8.64416e-05 0.0025 0.546414 0.429329 1.9643 0.00915057 6 4 1 -3.50841e-09 
1.26047 -0.673082 8.95925e-05 0.0025 0.546427 0.429326 1.96424 0.00915035 7 4 1 8.2403e-09 
1.26504 -0.673083 9.2923e-05 0.0025 0.546442 0.429326 1.96419 0.00915011 8 4 1 4.77011e-09 
1.26962 -0.673084 9.73817e-05 0.0025 0.546454 0.429325 1.96414 0.0091499 9 4 1 5.48034e-09 
1.27419 -0.673085 0.000103646 0.0025 0.546466 0.429325 1.9641 0.00914971 10 4 1 -2.23879e-09 
1.27877 -0.673086 0.000111689 0.0025 0.546477 0.429325 1.96406 0.00914952 11 4 1 4.72585e-09 
1.28334 -0.673087 0.00012067 0.0025 0.546487 0.429325 1.96402 0.00914935 12 4 1 2.8467e-09 
1.28791 -0.673088 0.00012917 0.0025 0.546496 0.429324 1.96398 0.0091492 13 4 1 3.5701e-09 
1.29249 -0.673089 0.00013557 0.0025 0.546504 0.429324 1.96395 0.00914906 14 4 1 2.12607e-09 
1.29706 -0.673091 0.000138259 0.0025 0.546511 0.429323 1.96393 0.00914894 15 4 1 -1.56158e-09 
1.30164 -0.673092 0.000135407 0.0025 0.546519 0.429323 1.9639 0.00914882 16 4 1 4.94295e-09 
1.30621 -0.673094 0.000124411 0.0025 0.546525 0.429323 1.96387 0.00914871 17 4 1 1.5504e-09 
1.31079 -0.673096 0.000101423 0.0025 0.546531 0.429322 1.96385 0.00914862 18 4 1 -1.08648e-09 
1.31536 -0.673098 6.1632e-05 0.0025 0.546536 0.429322 1.96383 0.00914852 19 4 1 2.85776e-09 
1.31994 -0.6731 8.24523e-07 0.0025 0.546542 0.429322 1.96381 0.00914843 20 4 1 1.38745e-09 
1.32451 -0.673103 -8.18733e-05 0.0025 0.546547 0.429322 1.96379 0.00914835 21 4 1 1.46943e-09 
1.32908 -0.673107 -0.000181059 0.0025 0.546551 0.429322 1.96378 0.00914827 22 4 1 1.37895e-09 
1.33366 -0.673111 -0.000283536 0.0025 0.546556 0.429322 1.96376 0.0091482 23 4 1 1.58737e-10 
1.33823 -0.673116 -0.000369646 0.0025 0.54656 0.429323 1.96375 0.00914812 24 4 1 1.76808e-09 
1.34281 -0.673121 -0.0004177 0.0025 0.546565 0.429324 1.96374 0.00914805 25 4 1 9.33559e-10 
1.34738 -0.673127 -0.00041014 0.0025 0.546569 0.429325 1.96373 0.00914798 26 4 1 -3.00262e-10 
1.35195 -0.673133 -0.000338947 0.0025 0.546573 0.429326 1.96371 0.00914791 27 4 1 1.12745e-09 
1.35653 -0.673139 -0.000208063 0.0025 0.546577 0.429326 1.9637 0.00914784 28 4 1 6.21575e-10 
1.3611 -0.673144 -3.19589e-05 0.0025 0.54658 0.429327 1.9637 0.00914779 29 4 1 -1.12805e-09 
1.36568 -0.673149 0.000168806 0.0025 0.546583 0.429327 1.96369 0.00914774 30 4 1 7.41468e-11 
1.37025 -0.673154 0.000373161 0.0025 0.546585 0.429326 1.96367 0.00914771 31 4 1 1.51426e-09 
1.37482 -0.673158 0.000564299 0.0025 0.546586 0.429325 1.96367 0.00914769 32 4 1 -1.28985e-09 
1.3794 -0.673161 0.00073232 0.0025 0.546587 0.429324 1.96366 0.00914767 33 4 1 -1.21323e-09 
1.38397 -0.673165 0.000874355 0.0025 0.546588 0.429322 1.96364 0.00914766 34 3 1 1.79113e-09 
1.38854 -0.673168 0.000992658 0.0025 0.546587 0.429319 1.96364 0.00914767 35 4 1 -4.75702e-10 
1.39312 -0.673171 0.00109196 0.0025 0.546587 0.429317 1.96363 0.00914767 36 4 1 -1.09213e-09 
1.39769 -0.673174 0.00117754 0.0025 0.546586 0.429314 1.96361 0.00914769 37 4 1 1.25673e-09 
1.40227 -0.673178 0.00125461 0.0025 0.546585 0.429311 1.9636 0.00914771 38 4 1 -4.35086e-11 
1.40684 -0.673182 0.0013286 0.0025 0.546584 0.429307 1.96359 0.00914773 39 4 1 -8.51027e-10 
1.41141 -0.673186 0.00140486 0.0025 0.546582 0.429304 1.96358 0.00914776 40 4 1 5.95652e-10 
1.41599 -0.673191 0.00148721 0.0025 0.54658 0.4293 1.96357 0.00914779 41 4 1 3.16967e-10 
1.42056 -0.673196 0.00157664 0.0025 0.546578 0.429296 1.96356 0.00914783 42 4 1 -7.61994e-10 
1.42514 -0.673202 0.00167164 0.0025 0.546576 0.429292 1.96355 0.00914787 43 4 1 -1.52525e-10 
1.42971 -0.673208 0.00177102 0.0025 0.546573 0.429287 1.96354 0.00914791 44 4 1 8.10776e-10 
1.43428 -0.673215 0.00187655 0.0025 0.54657 0.429283 1.96353 0.00914797 45 4 1 -5.42985e-10 
1.43886 -0.673223 0.00199268 0.0025 0.546566 0.429278 1.96352 0.00914802 46 4 1 -9.21527e-10 
1.44343 -0.673231 0.00212278 0.0025 0.546562 0.429272 1.96351 0.00914809 47 4 1 3.5267e-10 
1.44801 -0.67324 0.00226646 0.0025 0.546558 0.429266 1.9635 0.00914815 48 4 1 -1.87893e-12 
1.45258 -0.67325 0.00242263 0.0025 0.546554 0.42926 1.96349 0.00914823 49 4 1 -9.29713e-10 
1.45715 -0.673261 0.00259714 0.0025 0.546549 0.429254 1.96347 0.00914832 50 4 1 -6.75674e-10 
1.46173 -0.673273 0.00280638 0.0025 0.546543 0.429247 1.96346 0.00914841 51 4 1 1.629e-10 
1.4663 -0.673287 0.00306849 0.0025 0.546537 0.429239 1.96345 0.00914851 52 4 1 -6.97295e-10 
1.47088 -0.673301 0.00338685 0.0025 0.54653 0.429231 1.96343 0.00914862 53 4 1 -1.58583e-09 
1.47545 -0.673316 0.00374203 0.0025 0.546523 0.429221 1.96342 0.00914875 54 4 1 -8.38149e-10 
1.48003 -0.673333 0.00410564 0.0025 0.546514 0.429211 1.9634 0.00914889 55 4 1 -2.7681e-10 
1.4846 -0.673351 0.00446819 0.0025 0.546505 0.4292 1.96338 0.00914905 56 4 1 -1.34219e-09 
1.48917 -0.673372 0.00485652 0.0025 0.546495 0.429187 1.96337 0.00914922 57 4 1 -1.83984e-09 
1.49375 -0.673394 0.00532202 0.0025 0.546483 0.429174 1.96335 0.00914941 58 4 1 -8.41732e-10 
1.49832 -0.673419 0.00590643 0.0025 0.546471 0.429159 1.96332 0.00914962 59 4 1 -1.43508e-09 
-0.497101 -0.673446 0.00661218 0.0025 0.546456 0.429143 1.9633 0.00914986 60 4 1 -2.46161e-09 
-0.492526 -0.673476 0.00740118 0.0025 0.54644 0.429124 1.96327 0.00915013 61 4 1 -2.51325e-09 
-0.487951 -0.673509 0.00822459 0.0025 0.546422 0.429104 1.96324 0.00915043 62 4 1 -2.0088e-09 
-0.483376 -0.673545 0.00906566 0.0025 0.546402 0.429081 1.96321 0.00915077 63 4 1 -2.48317e-09 
-0.478801 -0.673586 0.00996771 0.0025 0.54638 0.429056 1.96318 0.00915114 64 4 1 -3.14843e-09 
-0.474225 -0.673633 0.0110195 0.0025 0.546355 0.429028 1.96314 0.00915156 65 4 1 -3.17852e-09 
-0.469649 -0.673685 0.0122947 0.0025 0.546327 0.428997 1.96309 0.00915202 66 4 1 -3.65912e-09 
-0.465073 -0.673744 0.0137975 0.0025 0.546297 0.428962 1.96305 0.00915254 67 4 1 -4.46519e-09 
-0.460496 -0.673809 0.0154819 0.0025 0.546262 0.428923 1.96299 0.00915312 68 4 1 -4.98697e-09 
-0.45592 -0.673882 0.0173199 0.0025 0.546223 0.42888 1.96294 0.00915377 69 4 1 -5.05419e-09 
-0.451343 -0.673962 0.0193007 0.0025 0.54618 0.428832 1.96287 0.0091545 70 4 1 -5.46173e-09 
-0.446765 -0.674051 0.0213482 0.0025 0.546132 0.428779 1.9628 0.0091553 71 4 1 -5.59851e-09 
-0.442187 -0.674149 0.0233282 0.0025 0.546079 0.42872 1.96272 0.00915618 72 4 1 -4.92473e-09 
-0.437609 -0.674257 0.0251792 0.0025 0.546022 0.428657 1.96264 0.00915714 73 4 1 -4.27688e-09 
-0.43303 -0.674373 0.0269091 0.0025 0.545961 0.42859 1.96255 0.00915816 74 4 1 -3.64285e-09 
-0.428451 -0.674498 0.0284658 0.0025 0.545897 0.428519 1.96245 0.00915923 75 4 1 -2.56616e-09 
-0.423871 -0.674628 0.0297867 0.0025 0.545831 0.428446 1.96236 0.00916035 76 4 1 -1.08804e-09 
-0.419291 -0.674758 0.0306179 0.0025 0.545763 0.428371 1.96226 0.00916148 77 4 1 1.2673e-09 
-0.41471 -0.674886 0.0302041 0.0025 0.545697 0.428298 1.96216 0.0091626 78 4 1 5.05459e-09 
-0.410128 -0.675006 0.0281302 0.0025 0.545634 0.428229 1.96207 0.00916365 79 4 1 9.73265e-09 
-0.405546 -0.675116 0.024379 0.0025 0.545579 0.428168 1.96199 0.00916457 80 4 1 1.48031e-08 
-0.400963 -0.675208 0.0188077 0.0025 0.545537 0.428121 1.96192 0.00916528 81 4 1 1.77011e-08 
-0.396381 -0.675277 0.0132409 0.0025 0.545509 0.42809 1.96188 0.00916575 82 4 1 2.39836e-08 
-0.391798 -0.675312 0.00247354 0.0025 0.545501 0.428081 1.96187 0.00916589 83 5 1 2.12163e-08 
-0.387215 -0.675291 -0.000284813 0.0025 0.545511 0.428092 1.96188 0.00916572 84 4 1 4.48955e-08 
-0.382632 -0.675248 -0.0217509 0.0025 0.545559 0.42815 1.96195 0.00916491 85 4 1 1.65547e-07 
-0.37805 -0.674949 -0.116803 0.0025 0.545744 0.428359 1.96221 0.0091618 86 4 1 3.18709e-07 
-0.37347 -0.674117 -0.258238 0.0025 0.546184 0.428844 1.96284 0.00915442 87 4 1 3.81246e-07 
-0.368895 -0.672728 -0.376222 0.0025 0.546918 0.429652 1.9639 0.00914214 88 4 1 4.41719e-07 
-0.364328 -0.670774 -0.525196 0.0025 0.547973 0.430819 1.96541 0.00912453 89 4 1 6.54884e-07 
-0.359771 -0.667971 -0.771793 0.0025 0.549477 0.432481 1.96756 0.00909957 90 4 1 9.13699e-07 
-0.355228 -0.663997 -1.06216 0.0025 0.551555 0.434773 1.97054 0.00906527 91 4 1 1.02194e-06 
-0.350706 -0.658903 -1.30027 0.0025 0.554199 0.437688 1.97431 0.00902203 92 4 1 9.80973e-07 
-0.346206 -0.652984 -1.46512 0.0025 0.557285 0.441097 1.9787 0.00897207 93 4 1 8.77867e-07 
-0.341733 -0.646569 -1.55466 0.0025 0.560665 0.444842 1.98349 0.00891799 94 4 1 8.37874e-07 
-0.337288 -0.639838 -1.64289 0.0025 0.564255 0.448836 1.98856 0.00886124 95 4 1 8.98269e-07 
-0.332872 -0.632764 -1.74268 0.0025 0.568054 0.453073 1.99391 0.00880198 96 4 1 9.90147e-07 
-0.328486 -0.625302 -1.85679 0.0025 0.572078 0.457573 1.99954 0.00874006 97 4 1 1.06799e-06 
-0.324132 -0.617446 -1.96659 0.0025 0.576333 0.462343 2.00548 0.00867555 98 4 1 1.10407e-06 
-0.31981 -0.609236 -2.06178 0.0025 0.580794 0.467359 2.01167 0.00860891 99 4 1 1.07891e-06 
-0.315523 -0.600809 -2.11743 0.0025 0.585405 0.472559 2.01805 0.0085411 100 4 1 1.01983e-06 
-0.311269 -0.592267 -2.14967 0.0025 0.590101 0.477872 2.02451 0.00847313 101 4 1 9.56819e-07 
-0.30705 -0.583736 -2.15876 0.0025 0.594829 0.483239 2.03098 0.00840577 102 4 1 8.75494e-07 
-0.302863 -0.575309 -2.14132 0.0025 0.599539 0.488602 2.0374 0.00833974 103 4 1 8.05565e-07 
-0.29871 -0.567045 -2.11707 0.0025 0.604196 0.493923 2.04371 0.00827546 104 4 1 7.78986e-07 
-0.294588 -0.558918 -2.10509 0.0025 0.608801 0.499201 2.04993 0.00821286 105 4 1 7.53001e-07 
-0.290497 -0.550925 -2.08492 0.0025 0.613355 0.504437 2.05605 0.00815188 106 4 1 7.12777e-07 
-0.286436 -0.543073 -2.0615 0.0025 0.617851 0.50962 2.06206 0.00809257 107 4 1 6.84435e-07 
-0.282404 -0.535394 -2.03993 0.0025 0.622287 0.51475 2.06797 0.00803488 108 4 1 6.76035e-07 
-0.278401 -0.527825 -2.03052 0.0025 0.626676 0.519841 2.07379 0.0079786 109 4 1 6.60347e-07 
-0.274425 -0.520371 -2.01388 0.0025 0.631023 0.524896 2.07954 0.00792364 110 4 1 6.3033e-07 
-0.270477 -0.51304 -1.99395 0.0025 0.635324 0.529911 2.08519 0.00787001 111 4 1 6.3619e-07 
-0.266555 -0.505807 -1.99757 0.0025 0.639594 0.534904 2.09079 0.00781746 112 4 1 6.3649e-07 
-0.262659 -0.498621 -1.99015 0.0025 0.643846 0.539889 2.09634 0.00776584 113 4 1 6.11442e-07 
-0.258789 -0.491556 -1.97802 0.0025 0.648071 0.544857 2.10183 0.0077152 114 4 1 6.36429e-07 
-0.254944 -0.484504 -1.99977 0.0025 0.652297 0.549838 2.1073 0.00766522 115 4 1 6.69275e-07 
-0.251124 -0.477437 -2.02039 0.0025 0.65655 0.554863 2.11278 0.00761557 116 4 1 6.5601e-07 
-0.247329 -0.470387 -2.02517 0.0025 0.660821 0.559924 2.11827 0.00756635 117 4 1 6.71329e-07 
-0.243558 -0.463326 -2.05516 0.0025 0.665121 0.565033 2.12377 0.00751743 118 4 1 7.09591e-07 
-0.239811 -0.456211 -2.09103 0.0025 0.669476 0.570219 2.12932 0.00746853 119 4 1 7.3412e-07 
-0.236089 -0.449015 -2.1338 0.0025 0.673897 0.575497 2.13494 0.00741954 120 4 1 7.30828e-07 
-0.232391 -0.441761 -2.15723 0.0025 0.678373 0.580854 2.1406 0.00737058 121 4 1 7.10805e-07 
-0.228718 -0.434506 -2.17464 0.0025 0.682884 0.586269 2.14628 0.00732189 122 4 1 7.19802e-07 
-0.225069 -0.427232 -2.2051 0.0025 0.687433 0.591745 2.15199 0.00727344 123 4 1 7.32392e-07 
-0.221445 -0.419903 -2.23422 0.0025 0.692026 0.597286 2.15773 0.00722516 124 4 1 7.0286e-07 
-0.217844 -0.41259 -2.23563 0.0025 0.69664 0.602868 2.16347 0.0071773 125 4 1 6.80013e-07 
-0.214267 -0.405319 -2.24552 0.0025 0.701259 0.608471 2.16919 0.00713004 126 4 1 6.90431e-07 
-0.210714 -0.398049 -2.26486 0.0025 0.705891 0.614105 2.17491 0.00708324 127 4 1 6.69552e-07 
-0.207184 -0.390802 -2.26126 0.0025 0.710527 0.619758 2.18062 0.00703703 128 4 1 6.40499e-07 
-0.203677 -0.383663 -2.25823 0.0025 0.715149 0.62541 2.18628 0.00699155 129 4 1 6.48836e-07 
-0.200192 -0.376536 -2.2723 0.0025 0.71977 0.631074 2.19192 0.00694667 130 4 1 6.41206e-07 
-0.19673 -0.369449 -2.27039 0.0025 0.724389 0.636751 2.19753 0.00690237 131 4 1 6.31959e-07 
-0.19329 -0.362394 -2.28104 0.0025 0.729005 0.642439 2.20312 0.00685866 132 4 1 6.18385e-07 
-0.189871 -0.35538 -2.27484 0.0025 0.733614 0.648132 2.20868 0.00681557 133 4 1 5.98884e-07 
-0.186474 -0.348452 -2.27291 0.0025 0.738207 0.653819 2.2142 0.00677317 134 4 1 6.02759e-07 
-0.183098 -0.341549 -2.28003 0.0025 0.742793 0.659514 2.2197 0.00673135 135 4 1 6.09492e-07 
-0.179743 -0.334674 -2.29344 0.0025 0.747384 0.665227 2.22517 0.00669 136 4 1 5.88282e-07 
-0.176408 -0.327836 -2.28516 0.0025 0.751967 0.670944 2.23062 0.00664923 137 4 1 5.52169e-07 
-0.173094 -0.321082 -2.26816 0.0025 0.756523 0.676642 2.23602 0.00660919 138 4 1 5.65049e-07 
-0.169799 -0.314396 -2.28297 0.0025 0.761068 0.682341 2.24138 0.00656972 139 4 1 6.0409e-07 
-0.166524 -0.307678 -2.31499 0.0025 0.765637 0.688082 2.24675 0.00653051 140 4 1 5.73216e-07 
-0.163268 -0.300971 -2.30075 0.0025 0.770209 0.693839 2.25211 0.00649174 141 4 1 5.19162e-07 
-0.160032 -0.294384 -2.27959 0.0025 0.774747 0.699569 2.25741 0.00645372 142 4 1 5.28223e-07 
-0.156815 -0.287862 -2.28686 0.0025 0.779264 0.705289 2.26266 0.00641631 143 4 1 5.63354e-07 
-0.153616 -0.281319 -2.31377 0.0025 0.783797 0.711039 2.26792 0.0063792 144 4 1 5.56084e-07 
-0.150435 -0.274802 -2.31623 0.0025 0.788341 0.716815 2.27317 0.00634243 145 4 1 5.09452e-07 
-0.147273 -0.268317 -2.29647 0.0025 0.792864 0.722577 2.27837 0.00630626 146 4 1 4.86268e-07 
-0.144129 -0.261967 -2.28309 0.0025 0.797353 0.728313 2.28352 0.00627075 147 4 1 5.17926e-07 
-0.141002 -0.25562 -2.3077 0.0025 0.801841 0.734059 2.28866 0.00623565 148 4 1 5.39584e-07 
-0.137893 -0.249257 -2.3247 0.0025 0.806351 0.739845 2.2938 0.00620078 149 4 1 5.23783e-07 
-0.134802 -0.242916 -2.33193 0.0025 0.810869 0.745654 2.29893 0.00616622 150 4 1 4.79407e-07 
-0.131727 -0.236621 -2.30549 0.0025 0.815365 0.751448 2.30402 0.00613222 151 4 1 4.56635e-07 
-0.128669 -0.230441 -2.29626 0.0025 0.819826 0.757211 2.30905 0.00609886 152 4 1 4.87477e-07 
-0.125628 -0.224269 -2.31517 0.0025 0.824284 0.762982 2.31406 0.00606587 153 4 1 5.04748e-07 
-0.122603 -0.218106 -2.33112 0.0025 0.828759 0.768787 2.31908 0.00603312 154 4 1 4.95964e-07 
-0.119595 -0.211942 -2.34122 0.0025 0.833244 0.774617 2.32409 0.00600065 155 4 1 4.56027e-07 
-0.116603 -0.205832 -2.31727 0.0025 0.837709 0.780433 2.32907 0.00596866 156 4 1 4.2176e-07 
-0.113626 -0.199834 -2.29571 0.0025 0.842133 0.78621 2.33398 0.00593731 157 4 1 4.51e-07 
-0.110665 -0.193858 -2.31539 0.0025 0.846547 0.791988 2.33886 0.00590634 158 4 1 4.85144e-07 
-0.10772 -0.187878 -2.33982 0.0025 0.850987 0.797809 2.34376 0.00587553 159 4 1 5.01968e-07 
-0.10479 -0.181841 -2.37816 0.0025 0.855462 0.803687 2.34869 0.00584479 160 4 1 4.31847e-07 
-0.101875 -0.175856 -2.32442 0.0025 0.859917 0.80955 2.35357 0.00581451 161 4 1 3.7514e-07 
-0.0989752 -0.170026 -2.30114 0.0025 0.864308 0.815344 2.35837 0.00578497 162 4 1 4.04345e-07 
-0.09609 -0.164243 -2.29817 0.0025 0.868672 0.821116 2.36312 0.00575591 163 4 1 4.64498e-07 
-0.0932193 -0.158467 -2.35263 0.0025 0.873066 0.826939 2.3679 0.00572694 164 4 1 5.08027e-07 
-0.090363 -0.152548 -2.40145 0.0025 0.877524 0.832852 2.37273 0.00569785 165 4 1 4.09591e-07 
-0.0875214 -0.146726 -2.33704 0.0025 0.881962 0.838751 2.37752 0.00566918 166 4 1 3.30294e-07 
-0.0846938 -0.141049 -2.29429 0.0025 0.886314 0.844552 2.38221 0.00564134 167 4 1 3.44113e-07 
-0.08188 -0.135504 -2.26659 0.0025 0.890609 0.850293 2.38681 0.00561413 168 4 1 4.5931e-07 
-0.0790797 -0.129914 -2.37003 0.0025 0.894953 0.856108 2.39146 0.00558689 169 4 1 5.30118e-07 
-0.0762931 -0.124119 -2.42839 0.0025 0.899404 0.86207 2.39622 0.00555924 170 4 1 4.20084e-07 
-0.0735204 -0.118401 -2.3856 0.0025 0.90386 0.868051 2.40096 0.00553183 171 4 1 3.20045e-07 
-0.0707612 -0.112804 -2.32345 0.0025 0.90823 0.87393 2.4056 0.00550521 172 4 1 2.61781e-07 
-0.0680151 -0.107487 -2.22934 0.0025 0.912486 0.879674 2.41009 0.00547953 173 4 1 4.10224e-07 
-0.0652816 -0.102191 -2.36223 0.0025 0.916766 0.885464 2.41461 0.00545396 174 4 1 5.8992e-07 
-0.0625611 -0.0965999 -2.4954 0.0025 0.921224 0.891493 2.4193 0.00542756 175 4 1 4.37333e-07 
-0.0598541 -0.0910643 -2.41485 0.0025 0.925724 0.897589 2.42402 0.00540118 176 4 1 3.31874e-07 
-0.0571599 -0.0858098 -2.40063 0.0025 0.930154 0.903612 2.42866 0.00537545 177 4 1 3.65098e-07 
-0.0544786 -0.080634 -2.38363 0.0025 0.934553 0.909596 2.43324 0.00535015 178 4 1 2.87548e-07 
-0.0518098 -0.0758512 -2.27445 0.0025 0.938882 0.91551 2.43774 0.00532548 179 4 1 5.7389e-07 
-0.0491531 -0.0710661 -2.60421 0.0025 0.943381 0.921672 2.4424 0.00530008 180 4 1 8.69822e-07 
-0.0465096 -0.0657353 -2.85898 0.0025 0.948279 0.92836 2.44748 0.00527271 181 4 1 3.86341e-07 
-0.0438803 -0.0608618 -2.51557 0.0025 0.953148 0.935028 2.4525 0.00524578 182 4 1 2.14234e-07 
-0.0412638 -0.056862 -2.51232 0.0025 0.957815 0.941468 2.45728 0.00522021 183 4 1 8.06492e-07 
-0.0386601 -0.052601 -2.98104 0.0025 0.962785 0.948316 2.46238 0.00519327 184 4 1 7.22981e-07 
-0.0360705 -0.0482836 -2.85326 0.0025 0.967996 0.955486 2.46771 0.00516531 185 4 1 2.38506e-07 
-0.0334947 -0.0449026 -2.6006 0.0025 0.97302 0.962451 2.47281 0.00513864 186 4 1 7.73239e-07 
-0.0309318 -0.0416259 -3.16573 0.0025 0.978285 0.969774 2.47815 0.00511099 187 4 1 1.3098e-06 
-0.0283837 -0.0373625 -3.63549 0.0025 0.984201 0.977965 2.48416 0.00508026 188 4 1 3.74267e-07 
-0.0258515 -0.0336433 -2.91585 0.0025 0.989934 0.985907 2.48995 0.00505084 189 4 1 -5.37771e-07 
-0.0233328 -0.031679 -2.15232 0.0025 0.994729 0.992631 2.49472 0.00502649 190 4 1 5.44764e-07 
-0.020825 -0.0300124 -2.99896 0.0025 0.999594 0.999504 2.49958 0.00500203 191 4 1 2.12923e-06 
-0.0183307 -0.0256085 -4.38782 0.0025 1.00584 1.00823 2.50588 0.00497095 192 4 1 7.01626e-07 
-0.015854 -0.0208693 -3.23732 0.0025 1.01217 1.01702 2.51222 0.00493986 193 4 1 -1.74853e-06 
-0.0133908 -0.0192701 -1.37018 0.0025 1.01646 1.02307 2.5164 0.00491904 194 4 1 -4.74843e-07 
-0.0109349 -0.0193234 -1.92576 0.0025 1.01988 1.02802 2.51974 0.00490255 195 4 1 2.15305e-06 
-0.00848828 -0.014682 -4.04263 0.0025 1.02489 1.03506 2.52478 0.00487859 196 4 1 3.76081e-07 
-0.00605631 -0.00855564 -2.40947 0.0025 1.02994 1.04207 2.5298 0.00485467 197 4 1 -2.68602e-06 
-0.00363359 -0.00499734 0.195649 0.0025 1.03204 1.04507 2.53183 0.00484477 198 3 1 -1.81006e-06 
-0.00121154 -0.00205085 0.461675 0.0025 1.03196 1.04506 2.53172 0.00484513 199 4 1 1.891e-07 
0.00121154 0.00205085 -0.461675 0.0025 1.03196 1.04506 2.53172 0.00484513 200 4 1 1.891e-07 
0.00363359 0.00499734 -0.195649 0.0025 1.03204 1.04507 2.53183 0.00484477 201 3 1 -1.81006e-06 
0.00605631 0.00855564 2.40947 0.0025 1.02994 1.04207 2.5298 0.00485467 202 4 1 -2.68602e-06 
0.00848828 0.014682 4.04263 0.0025 1.02489 1.03506 2.52478 0.00487859 203 4 1 3.76081e-07 
0.0109349 0.0193234 1.92576 0.0025 1.01988 1.02802 2.51974 0.00490255 204 4 1 2.15305e-06 
0.0133908 0.0192701 1.37018 0.0025 1.01646 1.02307 2.5164 0.00491904 205 4 1 -4.74843e-07 
0.015854 0.0208693 3.23732 0.0025 1.01217 1.01702 2.51222 0.00493986 206 4 1 -1.74853e-06 
0.0183307 0.0256085 4.38782 0.0025 1.00584 1.00823 2.50588 0.00497095 207 4 1 7.01626e-07 
0.020825 0.0300124 2.99896 0.0025 0.999594 0.999504 2.49958 0.00500203 208 4 1 2.12923e-06 
0.0233328 0.031679 2.15232 0.0025 0.994729 0.992631 2.49472 0.00502649 209 4 1 5.44764e-07 
0.0258515 0.0336433 2.91585 0.0025 0.989934 0.985907 2.48995 0.00505084 210 4 1 -5.37771e-07 
0.0283837 0.0373625 3.63549 0.0025 0.984201 0.977965 2.48416 0.00508026 211 4 1 3.74267e-07 
