# Time [s]: 0.411924
# Columns: pos [m], vel [m/s], acc [m/s^2], mass [kg], dens [kg/m^3], pres [Pa], ene [J/kg], sml [m], id, neighbor, alpha, gradh, ...additional?
1.22496 -0.673077 5.34189e-05 0.0025 0.511058 0.432736 2.15251 0.00978362 0 4 1 -0.000134225 
1.22974 -0.673078 5.64469e-05 0.0025 0.536916 0.426199 1.95005 0.00931244 1 4 1 0.000179253 
1.23428 -0.673078 5.98591e-05 0.0025 0.548246 0.430869 1.96851 0.00911999 2 3 1 -1.90585e-05 
1.23886 -0.673079 6.34713e-05 0.0025 0.545982 0.429205 1.96466 0.00915782 3 5 1 3.48563e-06 
1.24344 -0.673079 6.67382e-05 0.0025 0.54638 0.42936 1.96459 0.00915114 4 4 1 -1.38685e-07 
1.24802 -0.67308 6.93933e-05 0.0025 0.546391 0.42933 1.96436 0.00915095 5 4 1 1.43733e-07 
1.25259 -0.673081 7.16518e-05 0.0025 0.546414 0.429329 1.9643 0.00915057 6 4 1 -3.50491e-09 
1.25717 -0.673082 7.41797e-05 0.0025 0.546428 0.429327 1.96424 0.00915034 7 4 1 8.24202e-09 
1.26174 -0.673082 7.77774e-05 0.0025 0.546442 0.429326 1.96419 0.0091501 8 4 1 4.76989e-09 
1.26632 -0.673083 8.29328e-05 0.0025 0.546455 0.429326 1.96414 0.00914989 9 4 1 5.47933e-09 
1.27089 -0.673084 8.94793e-05 0.0025 0.546466 0.429326 1.9641 0.0091497 10 4 1 -2.23859e-09 
1.27547 -0.673085 9.65365e-05 0.0025 0.546477 0.429325 1.96406 0.00914951 11 4 1 4.72931e-09 
1.28004 -0.673086 0.000102728 0.0025 0.546488 0.429325 1.96402 0.00914934 12 4 1 2.85478e-09 
1.28461 -0.673088 0.00010647 0.0025 0.546497 0.429325 1.96399 0.00914918 13 4 1 3.58345e-09 
1.28919 -0.673089 0.00010607 0.0025 0.546505 0.429325 1.96396 0.00914905 14 4 1 2.14526e-09 
1.29376 -0.67309 9.94732e-05 0.0025 0.546512 0.429324 1.96393 0.00914893 15 4 1 -1.53514e-09 
1.29834 -0.673092 8.38046e-05 0.0025 0.54652 0.429324 1.9639 0.0091488 16 4 1 4.97927e-09 
1.30291 -0.673093 5.51352e-05 0.0025 0.546526 0.429324 1.96388 0.0091487 17 4 1 1.59936e-09 
1.30749 -0.673095 9.04581e-06 0.0025 0.546532 0.429324 1.96385 0.0091486 18 4 1 -1.02453e-09 
1.31206 -0.673098 -5.76718e-05 0.0025 0.546538 0.429324 1.96383 0.0091485 19 4 1 2.9274e-09 
1.31664 -0.673101 -0.000144449 0.0025 0.546543 0.429324 1.96381 0.00914841 20 4 1 1.45186e-09 
1.32121 -0.673104 -0.000244523 0.0025 0.546549 0.429324 1.9638 0.00914832 21 4 1 1.50949e-09 
1.32578 -0.673108 -0.000344102 0.0025 0.546554 0.429325 1.96378 0.00914823 22 4 1 1.37463e-09 
1.33036 -0.673113 -0.000424172 0.0025 0.546558 0.429325 1.96377 0.00914815 23 4 1 9.69984e-11 
1.33493 -0.673118 -0.000464888 0.0025 0.546563 0.429326 1.96375 0.00914807 24 4 1 1.64977e-09 
1.33951 -0.673123 -0.00045114 0.0025 0.546568 0.429327 1.96374 0.00914799 25 4 1 7.75604e-10 
1.34408 -0.673129 -0.000377097 0.0025 0.546572 0.429328 1.96373 0.00914792 26 4 1 -4.68891e-10 
1.34865 -0.673134 -0.000247913 0.0025 0.546576 0.429329 1.96372 0.00914785 27 4 1 9.80393e-10 
1.35323 -0.673139 -7.80452e-05 0.0025 0.54658 0.42933 1.96371 0.00914779 28 4 1 5.21924e-10 
1.3578 -0.673144 0.000112969 0.0025 0.546583 0.42933 1.9637 0.00914774 29 4 1 -1.16752e-09 
1.36238 -0.673148 0.000305581 0.0025 0.546585 0.429329 1.96369 0.0091477 30 4 1 9.29597e-11 
1.36695 -0.673152 0.000484428 0.0025 0.546587 0.429329 1.96368 0.00914767 31 4 1 1.57789e-09 
1.37152 -0.673155 0.00064055 0.0025 0.546588 0.429327 1.96367 0.00914766 32 4 1 -1.20037e-09 
1.3761 -0.673158 0.000771335 0.0025 0.546589 0.429326 1.96366 0.00914764 33 4 1 -1.11587e-09 
1.38067 -0.67316 0.000878777 0.0025 0.546589 0.429324 1.96365 0.00914763 34 3 1 1.88374e-09 
1.38524 -0.673163 0.000967226 0.0025 0.546589 0.429321 1.96364 0.00914764 35 4 1 -3.94137e-10 
1.38982 -0.673166 0.00104175 0.0025 0.546589 0.429319 1.96363 0.00914764 36 4 1 -1.02361e-09 
1.39439 -0.673169 0.00110757 0.0025 0.546588 0.429316 1.96362 0.00914765 37 4 1 1.31181e-09 
1.39897 -0.673172 0.00116995 0.0025 0.546587 0.429313 1.96361 0.00914767 38 4 1 -1.50278e-12 
1.40354 -0.673176 0.00123364 0.0025 0.546586 0.42931 1.9636 0.00914769 39 4 1 -8.19564e-10 
1.40811 -0.67318 0.00130169 0.0025 0.546585 0.429307 1.96359 0.00914771 40 4 1 6.22475e-10 
1.41269 -0.673184 0.00137467 0.0025 0.546583 0.429303 1.96358 0.00914774 41 4 1 3.46514e-10 
1.41726 -0.673189 0.00145144 0.0025 0.546581 0.429299 1.96357 0.00914777 42 4 1 -7.25535e-10 
1.42184 -0.673194 0.00153146 0.0025 0.546579 0.429296 1.96356 0.00914781 43 4 1 -1.11174e-10 
1.42641 -0.6732 0.00161647 0.0025 0.546577 0.429291 1.96355 0.00914785 44 4 1 8.51566e-10 
1.43098 -0.673206 0.00170972 0.0025 0.546574 0.429287 1.96354 0.0091479 45 4 1 -5.04609e-10 
1.43556 -0.673213 0.0018132 0.0025 0.546571 0.429283 1.96353 0.00914795 46 4 1 -8.80409e-10 
1.44013 -0.673221 0.00192662 0.0025 0.546567 0.429278 1.96352 0.009148 47 4 1 4.02141e-10 
1.44471 -0.673229 0.00205078 0.0025 0.546564 0.429272 1.96351 0.00914806 48 4 1 5.05388e-11 
1.44928 -0.673239 0.00219298 0.0025 0.54656 0.429267 1.9635 0.00914813 49 4 1 -8.92189e-10 
1.45385 -0.673249 0.00236738 0.0025 0.546555 0.429261 1.96348 0.00914821 50 4 1 -6.65913e-10 
1.45843 -0.67326 0.00258612 0.0025 0.54655 0.429254 1.96347 0.00914829 51 4 1 1.60465e-10 
1.463 -0.673272 0.00284708 0.0025 0.546545 0.429247 1.96346 0.00914838 52 4 1 -6.66028e-10 
1.46758 -0.673285 0.00313126 0.0025 0.546539 0.42924 1.96345 0.00914848 53 4 1 -1.4772e-09 
1.47215 -0.673299 0.00341693 0.0025 0.546532 0.429231 1.96343 0.0091486 54 4 1 -6.54124e-10 
1.47672 -0.673314 0.00370136 0.0025 0.546524 0.429222 1.96342 0.00914872 55 4 1 -7.53913e-11 
1.4813 -0.673331 0.0040107 0.0025 0.546516 0.429212 1.9634 0.00914887 56 4 1 -1.19563e-09 
1.48587 -0.673349 0.00438631 0.0025 0.546506 0.429201 1.96338 0.00914902 57 4 1 -1.77102e-09 
1.49045 -0.673369 0.00485641 0.0025 0.546496 0.429188 1.96336 0.00914919 58 4 1 -7.93895e-10 
1.49502 -0.673391 0.00541499 0.0025 0.546485 0.429175 1.96334 0.00914938 59 4 1 -1.30378e-09 
1.4996 -0.673415 0.0060257 0.0025 0.546472 0.42916 1.96332 0.0091496 60 4 1 -2.16737e-09 
-0.495828 -0.673441 0.00665003 0.0025 0.546458 0.429143 1.9633 0.00914984 61 4 1 -2.06349e-09 
-0.491253 -0.673471 0.00728253 0.0025 0.546442 0.429125 1.96327 0.00915011 62 4 1 -1.50424e-09 
-0.486678 -0.673504 0.0079676 0.0025 0.546424 0.429105 1.96324 0.00915041 63 4 1 -2.05355e-09 
-0.482102 -0.673541 0.00877926 0.0025 0.546404 0.429082 1.96321 0.00915074 64 4 1 -2.84938e-09 
-0.477527 -0.673582 0.00977305 0.0025 0.546382 0.429058 1.96318 0.0091511 65 4 1 -2.93786e-09 
-0.472951 -0.673629 0.0109546 0.0025 0.546358 0.42903 1.96314 0.00915151 66 4 1 -3.35117e-09 
-0.468375 -0.67368 0.0123009 0.0025 0.546331 0.429 1.9631 0.00915197 67 4 1 -4.04793e-09 
-0.463799 -0.673738 0.0138004 0.0025 0.5463 0.428965 1.96305 0.00915248 68 4 1 -4.5179e-09 
-0.459223 -0.673802 0.0154438 0.0025 0.546265 0.428926 1.963 0.00915306 69 4 1 -4.56369e-09 
-0.454646 -0.673873 0.0171853 0.0025 0.546227 0.428883 1.96294 0.00915371 70 4 1 -4.9345e-09 
-0.450069 -0.673952 0.0189679 0.0025 0.546184 0.428836 1.96287 0.00915443 71 4 1 -5.15863e-09 
-0.445492 -0.674041 0.0207958 0.0025 0.546136 0.428783 1.9628 0.00915522 72 4 1 -4.88145e-09 
-0.440914 -0.674139 0.0227232 0.0025 0.546085 0.428726 1.96273 0.00915608 73 4 1 -4.88362e-09 
-0.436336 -0.674247 0.0247762 0.0025 0.546029 0.428664 1.96264 0.00915702 74 4 1 -4.98985e-09 
-0.431757 -0.674362 0.0269008 0.0025 0.545969 0.428598 1.96256 0.00915803 75 4 1 -4.5446e-09 
-0.427178 -0.674484 0.0288232 0.0025 0.545905 0.428527 1.96246 0.0091591 76 4 1 -3.18152e-09 
-0.422598 -0.674609 0.0300205 0.0025 0.545838 0.428453 1.96236 0.00916022 77 4 1 -6.80026e-10 
-0.418017 -0.674737 0.0301426 0.0025 0.545771 0.428379 1.96226 0.00916136 78 4 1 2.57875e-09 
-0.413437 -0.674866 0.0291205 0.0025 0.545705 0.428306 1.96217 0.00916246 79 4 1 6.16606e-09 
-0.408855 -0.67499 0.026999 0.0025 0.545644 0.428239 1.96208 0.00916348 80 4 1 9.49031e-09 
-0.404273 -0.675103 0.0241112 0.0025 0.545591 0.42818 1.962 0.00916438 81 4 1 1.23673e-08 
-0.399691 -0.675196 0.0201411 0.0025 0.545548 0.428133 1.96194 0.0091651 82 4 1 1.46749e-08 
-0.395108 -0.67526 0.014865 0.0025 0.545517 0.428099 1.96189 0.00916561 83 4 1 2.19326e-08 
-0.390525 -0.675295 0.0049293 0.0025 0.545505 0.428085 1.96187 0.00916583 84 5 1 2.41102e-08 
-0.385942 -0.675278 -0.00193336 0.0025 0.545512 0.428093 1.96188 0.0091657 85 4 1 4.21186e-08 
-0.381359 -0.675235 -0.0183454 0.0025 0.545556 0.428145 1.96194 0.00916496 86 4 1 1.44934e-07 
-0.376777 -0.674999 -0.101418 0.0025 0.54572 0.428331 1.96217 0.00916221 87 4 1 2.98478e-07 
-0.372197 -0.674247 -0.239433 0.0025 0.546123 0.428776 1.96275 0.00915545 88 4 1 3.77898e-07 
-0.367622 -0.672914 -0.363598 0.0025 0.546819 0.429543 1.96375 0.00914379 89 4 1 4.26538e-07 
-0.363053 -0.671034 -0.50088 0.0025 0.547829 0.430658 1.9652 0.00912694 90 4 1 6.05767e-07 
-0.358495 -0.668379 -0.7271 0.0025 0.549255 0.432235 1.96724 0.00910324 91 4 1 8.64895e-07 
-0.35395 -0.664606 -1.01255 0.0025 0.551233 0.434417 1.97007 0.00907057 92 4 1 1.00309e-06 
-0.349424 -0.659707 -1.25924 0.0025 0.55378 0.437225 1.97371 0.00902886 93 4 1 9.86644e-07 
-0.344921 -0.653927 -1.43773 0.0025 0.556789 0.440548 1.97799 0.00898006 94 4 1 8.84716e-07 
-0.340444 -0.647615 -1.53383 0.0025 0.560111 0.444228 1.98271 0.0089268 95 4 1 8.19975e-07 
-0.335994 -0.640978 -1.6147 0.0025 0.563645 0.448155 1.9877 0.00887084 96 4 1 8.59652e-07 
-0.331573 -0.634029 -1.70685 0.0025 0.567373 0.452312 1.99295 0.00881254 97 4 1 9.47292e-07 
-0.327182 -0.626713 -1.81547 0.0025 0.571315 0.456718 1.99848 0.00875175 98 4 1 1.0272e-06 
-0.322821 -0.619021 -1.92241 0.0025 0.575478 0.461384 2.00429 0.00868842 99 4 1 1.0719e-06 
-0.318493 -0.610959 -2.01883 0.0025 0.579848 0.466295 2.01036 0.00862295 100 4 1 1.06698e-06 
-0.314198 -0.602663 -2.08542 0.0025 0.584381 0.471402 2.01663 0.00855607 101 4 1 1.01631e-06 
-0.309937 -0.594245 -2.12178 0.0025 0.589013 0.476639 2.02301 0.00848878 102 4 1 9.49997e-07 
-0.305709 -0.585804 -2.1346 0.0025 0.593687 0.48194 2.02942 0.00842194 103 4 1 8.741e-07 
-0.301515 -0.577433 -2.12314 0.0025 0.598353 0.487249 2.03578 0.00835628 104 4 1 7.99485e-07 
-0.297353 -0.569216 -2.09708 0.0025 0.60297 0.492521 2.04205 0.00829228 105 4 1 7.65037e-07 
-0.293222 -0.561143 -2.08362 0.0025 0.607534 0.497748 2.04822 0.00822999 106 4 1 7.47293e-07 
-0.289123 -0.553208 -2.06871 0.0025 0.612052 0.502937 2.0543 0.00816924 107 4 1 7.11955e-07 
-0.285053 -0.545399 -2.04704 0.0025 0.616517 0.50808 2.06028 0.00811008 108 4 1 6.74917e-07 
-0.281013 -0.537757 -2.02194 0.0025 0.620921 0.513169 2.06615 0.00805256 109 4 1 6.60763e-07 
-0.277 -0.530239 -2.00971 0.0025 0.625273 0.518212 2.07194 0.0079965 110 4 1 6.56093e-07 
-0.273016 -0.522826 -2.00005 0.0025 0.629587 0.523224 2.07764 0.00794171 111 4 1 6.27588e-07 
-0.269059 -0.515533 -1.97823 0.0025 0.633858 0.528199 2.08327 0.00788821 112 4 1 6.17053e-07 
-0.265128 -0.508362 -1.97327 0.0025 0.63809 0.533144 2.08882 0.00783588 113 4 1 6.27129e-07 
-0.261223 -0.501221 -1.97429 0.0025 0.642303 0.538079 2.09433 0.00778448 114 4 1 6.05732e-07 
-0.257343 -0.494189 -1.95891 0.0025 0.646493 0.543 2.09978 0.00773403 115 4 1 6.0673e-07 
-0.253488 -0.48722 -1.96663 0.0025 0.650669 0.547917 2.10519 0.0076844 116 4 1 6.4782e-07 
-0.249659 -0.480235 -1.99337 0.0025 0.654864 0.55287 2.11061 0.00763517 117 4 1 6.48467e-07 
-0.245853 -0.47325 -1.99978 0.0025 0.659082 0.557862 2.11604 0.00758631 118 4 1 6.46865e-07 
-0.242072 -0.466275 -2.0199 0.0025 0.663322 0.562893 2.12147 0.00753782 119 4 1 6.76075e-07 
-0.238315 -0.459268 -2.04994 0.0025 0.667604 0.567987 2.12694 0.00748948 120 4 1 7.08482e-07 
-0.234583 -0.452197 -2.09232 0.0025 0.671945 0.573165 2.13246 0.00744108 121 4 1 7.21174e-07 
-0.230874 -0.445044 -2.1249 0.0025 0.676349 0.57843 2.13804 0.00739263 122 4 1 7.02438e-07 
-0.22719 -0.437865 -2.14183 0.0025 0.680795 0.58376 2.14365 0.00734435 123 4 1 6.91598e-07 
-0.22353 -0.430691 -2.16105 0.0025 0.685271 0.589141 2.14928 0.00729638 124 4 1 7.10579e-07 
-0.219893 -0.423472 -2.19581 0.0025 0.689788 0.594584 2.15493 0.0072486 125 4 1 7.05923e-07 
-0.216281 -0.416222 -2.20996 0.0025 0.694341 0.600084 2.16061 0.00720107 126 4 1 6.74878e-07 
-0.212692 -0.409018 -2.21452 0.0025 0.698905 0.605613 2.16628 0.00715405 127 4 1 6.70756e-07 
-0.209127 -0.401854 -2.23032 0.0025 0.703478 0.611169 2.17194 0.00710754 128 4 1 6.70499e-07 
-0.205585 -0.394668 -2.24212 0.0025 0.708064 0.616752 2.17759 0.00706151 129 4 1 6.31141e-07 
-0.202065 -0.387558 -2.22571 0.0025 0.712637 0.622336 2.1832 0.00701619 130 4 1 6.24249e-07 
-0.198568 -0.380502 -2.23836 0.0025 0.717199 0.627921 2.18878 0.00697157 131 4 1 6.33725e-07 
-0.195094 -0.373474 -2.24234 0.0025 0.721762 0.633521 2.19434 0.00692749 132 4 1 6.22198e-07 
-0.191641 -0.366494 -2.24865 0.0025 0.726324 0.639134 2.19988 0.00688398 133 4 1 6.16539e-07 
-0.18821 -0.359528 -2.25393 0.0025 0.730885 0.644759 2.20539 0.00684102 134 4 1 5.94704e-07 
-0.1848 -0.352636 -2.24604 0.0025 0.735434 0.650383 2.21087 0.00679871 135 4 1 5.8086e-07 
-0.181411 -0.345795 -2.24545 0.0025 0.739966 0.656002 2.21631 0.00675707 136 4 1 5.91477e-07 
-0.178043 -0.338992 -2.25784 0.0025 0.744497 0.661633 2.22173 0.00671594 137 4 1 5.93237e-07 
-0.174695 -0.33221 -2.26589 0.0025 0.749033 0.667282 2.22713 0.00667528 138 4 1 5.65099e-07 
-0.171367 -0.32547 -2.25509 0.0025 0.753556 0.672929 2.2325 0.00663521 139 4 1 5.35966e-07 
-0.16806 -0.318827 -2.24069 0.0025 0.758052 0.678557 2.23782 0.00659586 140 4 1 5.60822e-07 
-0.164771 -0.312228 -2.26483 0.0025 0.762546 0.684197 2.24312 0.00655698 141 4 1 5.88769e-07 
-0.161503 -0.305581 -2.28724 0.0025 0.767064 0.689878 2.24843 0.00651836 142 4 1 5.4931e-07 
-0.158253 -0.298984 -2.27187 0.0025 0.771578 0.695566 2.25371 0.00648023 143 4 1 4.97667e-07 
-0.155022 -0.292494 -2.2454 0.0025 0.776052 0.701221 2.25893 0.00644286 144 4 1 5.24975e-07 
-0.15181 -0.286044 -2.27114 0.0025 0.780517 0.706876 2.26411 0.00640601 145 4 1 5.50088e-07 
-0.148616 -0.279603 -2.28071 0.0025 0.784997 0.712563 2.2693 0.00636945 146 4 1 5.37684e-07 
-0.145441 -0.27315 -2.29425 0.0025 0.789485 0.718271 2.27449 0.00633324 147 4 1 4.94836e-07 
-0.142283 -0.266779 -2.26352 0.0025 0.793951 0.723965 2.27962 0.00629762 148 4 1 4.70504e-07 
-0.139143 -0.260505 -2.25796 0.0025 0.798382 0.729629 2.2847 0.00626267 149 4 1 5.10501e-07 
-0.13602 -0.25423 -2.28226 0.0025 0.802818 0.735311 2.28977 0.00622806 150 4 1 5.24776e-07 
-0.132915 -0.247961 -2.29676 0.0025 0.807273 0.741031 2.29484 0.00619369 151 4 1 5.11725e-07 
-0.129826 -0.241686 -2.30702 0.0025 0.811739 0.746774 2.29991 0.00615962 152 4 1 4.64846e-07 
-0.126755 -0.235493 -2.27542 0.0025 0.81618 0.752499 2.30494 0.0061261 153 4 1 4.47384e-07 
-0.1237 -0.229385 -2.27426 0.0025 0.820588 0.758196 2.30991 0.00609319 154 4 1 4.75773e-07 
-0.120662 -0.223297 -2.28587 0.0025 0.824994 0.763903 2.31486 0.00606065 155 4 1 4.87057e-07 
-0.11764 -0.217211 -2.30207 0.0025 0.829413 0.769636 2.31981 0.00602836 156 4 1 4.87771e-07 
-0.114633 -0.211121 -2.31653 0.0025 0.833844 0.775398 2.32476 0.00599633 157 4 1 4.40116e-07 
-0.111643 -0.205088 -2.2838 0.0025 0.838253 0.781143 2.32967 0.00596479 158 4 1 4.1581e-07 
-0.108669 -0.199159 -2.27678 0.0025 0.842625 0.786853 2.33452 0.00593384 159 4 1 4.36554e-07 
-0.105709 -0.193252 -2.27917 0.0025 0.846985 0.792561 2.33935 0.00590329 160 4 1 4.71349e-07 
-0.102765 -0.187362 -2.3164 0.0025 0.851368 0.79831 2.34418 0.0058729 161 4 1 4.95176e-07 
-0.0998364 -0.181388 -2.3474 0.0025 0.855791 0.80412 2.34905 0.00584254 162 4 1 4.21349e-07 
-0.0969227 -0.17549 -2.30073 0.0025 0.860195 0.809916 2.35387 0.00581264 163 4 1 3.78728e-07 
-0.0940237 -0.169708 -2.28617 0.0025 0.864545 0.815656 2.35863 0.00578339 164 4 1 3.79551e-07 
-0.0911393 -0.164007 -2.2565 0.0025 0.868856 0.821359 2.36332 0.00575469 165 4 1 4.49683e-07 
-0.088269 -0.158311 -2.33036 0.0025 0.873191 0.827105 2.36803 0.00572612 166 4 1 4.97516e-07 
-0.0854131 -0.152479 -2.36126 0.0025 0.877593 0.832944 2.3728 0.0056974 167 4 1 4.1227e-07 
-0.0825716 -0.14672 -2.32825 0.0025 0.881985 0.838783 2.37754 0.00566903 168 4 1 3.44618e-07 
-0.079744 -0.141082 -2.28127 0.0025 0.88631 0.844547 2.3822 0.00564137 169 4 1 3.2017e-07 
-0.0769302 -0.135619 -2.23505 0.0025 0.890565 0.850233 2.38677 0.00561441 170 4 1 4.47358e-07 
-0.0741296 -0.130142 -2.34857 0.0025 0.894863 0.855987 2.39137 0.00558745 171 4 1 5.24664e-07 
-0.0713427 -0.124484 -2.39705 0.0025 0.899273 0.861895 2.39608 0.00556005 172 4 1 4.53959e-07 
-0.0685695 -0.118877 -2.40667 0.0025 0.903722 0.867868 2.40081 0.00553268 173 4 1 3.78934e-07 
-0.06581 -0.113377 -2.36039 0.0025 0.908138 0.873807 2.4055 0.00550577 174 4 1 2.82039e-07 
-0.0630637 -0.108192 -2.26039 0.0025 0.912453 0.879629 2.41006 0.00547974 175 4 1 4.04388e-07 
-0.0603302 -0.103171 -2.37144 0.0025 0.916781 0.885487 2.41462 0.00545386 176 4 1 6.48483e-07 
-0.0576098 -0.0979243 -2.57173 0.0025 0.921329 0.89164 2.41941 0.00542694 177 4 1 5.48395e-07 
-0.0549032 -0.0926929 -2.52669 0.0025 0.926003 0.897972 2.42431 0.00539955 178 4 1 4.4332e-07 
-0.0522102 -0.087835 -2.55983 0.0025 0.930684 0.904337 2.42921 0.00537239 179 4 1 5.26057e-07 
-0.0495308 -0.083114 -2.62163 0.0025 0.935433 0.910799 2.43416 0.00534512 180 4 1 4.07757e-07 
-0.0468651 -0.0788329 -2.49851 0.0025 0.940168 0.917264 2.43907 0.0053182 181 4 1 5.85689e-07 
-0.0442126 -0.0749053 -2.75093 0.0025 0.945032 0.923933 2.44411 0.00529083 182 4 1 1.04254e-06 
-0.0415742 -0.0705133 -3.18108 0.0025 0.950374 0.931244 2.44964 0.00526109 183 4 1 7.33992e-07 
-0.0389514 -0.0661858 -2.98755 0.0025 0.955904 0.938816 2.45533 0.00523065 184 4 1 2.68601e-07 
-0.0363435 -0.0628875 -2.76531 0.0025 0.961195 0.946112 2.46075 0.00520186 185 4 1 6.90139e-07 
-0.0337495 -0.0596893 -3.14949 0.0025 0.966589 0.953568 2.46626 0.00517283 186 4 1 9.39685e-07 
-0.0311706 -0.0560142 -3.28206 0.0025 0.972304 0.961449 2.4721 0.00514242 187 4 1 3.38351e-07 
-0.0286071 -0.0528322 -2.84126 0.0025 0.977838 0.969113 2.47771 0.00511332 188 4 1 3.63835e-07 
-0.0260573 -0.0502683 -2.98018 0.0025 0.983198 0.976585 2.48312 0.00508544 189 4 1 1.06852e-06 
-0.0235216 -0.0467604 -3.54028 0.0025 0.988979 0.984634 2.48897 0.00505572 190 4 1 8.78032e-07 
-0.0210015 -0.0427275 -3.43758 0.0025 0.994978 0.99296 2.49502 0.00502524 191 4 1 -4.11939e-07 
-0.0184963 -0.0396735 -2.30451 0.0025 1.00011 1.00012 2.50015 0.00499945 192 4 1 -6.46294e-07 
-0.016002 -0.0380734 -1.97092 0.0025 1.00423 1.00595 2.50422 0.00497894 193 4 1 8.68063e-07 
-0.0135173 -0.0342786 -3.13541 0.0025 1.00874 1.0123 2.50874 0.0049567 194 4 1 1.00992e-06 
-0.0110453 -0.0275665 -3.07866 0.0025 1.01372 1.01922 2.51378 0.00493232 195 4 1 -1.72346e-06 
-0.008585 -0.0207878 -0.431165 0.0025 1.0168 1.02351 2.51681 0.0049174 196 4 1 -2.29121e-06 
-0.0061279 -0.0173941 0.500767 0.0025 1.01746 1.02457 2.51736 0.00491421 197 4 1 1.16415e-06 
-0.00367078 -0.0131457 -2.28816 0.0025 1.01907 1.02688 2.51897 0.00490644 198 4 1 1.62324e-06 
-0.00122145 -0.00505609 -2.07488 0.0025 1.02203 1.03089 2.52205 0.00489222 199 3 1 -2.86398e-06 
0.00122145 0.00505609 2.07488 0.0025 1.02203 1.03089 2.52205 0.00489222 200 3 1 -2.86398e-06 
0.00367078 0.0131457 2.28816 0.0025 1.01907 1.02688 2.51897 0.00490644 201 4 1 1.62324e-06 
0.0061279 0.0173941 -0.500767 0.0025 1.01746 1.02457 2.51736 0.00491421 202 4 1 1.16415e-06 
0.008585 0.0207878 0.431165 0.0025 1.0168 1.02351 2.51681 0.0049174 203 4 1 -2.29121e-06 
0.0110453 0.0275665 3.07866 0.0025 1.01372 1.01922 2.51378 0.00493232 204 4 1 -1.72346e-06 
0.0135173 0.0342786 3.13541 0.0025 1.00874 1.0123 2.50874 0.0049567 205 4 1 1.00992e-06 
0.016002 0.0380734 1.97092 0.0025 1.00423 1.00595 2.50422 0.00497894 206 4 1 8.68063e-07 
0.0184963 0.0396735 2.30451 0.0025 1.00011 1.00012 2.50015 0.00499945 207 4 1 -6.46294e-07 
0.0210015 0.0427275 3.43758 0.0025 0.994978 0.99296 2.49502 0.00502524 208 4 1 -4.11939e-07 
0.0235216 0.0467604 3.54028 0.0025 0.988979 0.984634 2.48897 0.00505572 209 4 1 8.78032e-07 
0.0260573 0.0502683 2.98018 0.0025 0.983198 0.976585 2.48312 0.00508544 210 4 1 1.06852e-06 
0.0286071 0.0528322 2.84126 0.0025 0.977838 0.969113 2.47771 0.00511332 211 4 1 3.63835e-07 
