# Time [s]: 0.41628
# Columns: pos [m], vel [m/s], acc [m/s^2], mass [kg], dens [kg/m^3], pres [Pa], ene [J/kg], sml [m], id, neighbor, alpha, gradh, ...additional?
1.22203 -0.673077 4.5612e-05 0.0025 0.511059 0.432736 2.15251 0.00978362 0 4 1 -0.000134225 
1.22681 -0.673077 4.84592e-05 0.0025 0.536916 0.426199 1.95005 0.00931244 1 4 1 0.000179253 
1.23135 -0.673078 5.1235e-05 0.0025 0.548247 0.430869 1.96851 0.00911998 2 3 1 -1.90585e-05 
1.23593 -0.673078 5.37156e-05 0.0025 0.545982 0.429205 1.96466 0.00915781 3 5 1 3.48563e-06 
1.24051 -0.673079 5.56535e-05 0.0025 0.54638 0.42936 1.96459 0.00915113 4 4 1 -1.38682e-07 
1.24508 -0.67308 5.72573e-05 0.0025 0.546392 0.429331 1.96436 0.00915095 5 4 1 1.43736e-07 
1.24966 -0.673081 5.91158e-05 0.0025 0.546415 0.42933 1.9643 0.00915056 6 4 1 -3.50381e-09 
1.25423 -0.673081 6.19148e-05 0.0025 0.546428 0.429327 1.96424 0.00915033 7 4 1 8.24171e-09 
1.25881 -0.673082 6.60461e-05 0.0025 0.546443 0.429327 1.96419 0.00915009 8 4 1 4.76915e-09 
1.26338 -0.673083 7.1312e-05 0.0025 0.546455 0.429327 1.96414 0.00914988 9 4 1 5.47981e-09 
1.26796 -0.673084 7.68705e-05 0.0025 0.546467 0.429326 1.9641 0.00914969 10 4 1 -2.23527e-09 
1.27253 -0.673085 8.14068e-05 0.0025 0.546478 0.429326 1.96406 0.0091495 11 4 1 4.73661e-09 
1.27711 -0.673086 8.33594e-05 0.0025 0.546488 0.429326 1.96402 0.00914933 12 4 1 2.86673e-09 
1.28168 -0.673087 8.09734e-05 0.0025 0.546497 0.429326 1.96399 0.00914917 13 4 1 3.60078e-09 
1.28626 -0.673088 7.20748e-05 0.0025 0.546505 0.429325 1.96396 0.00914904 14 4 1 2.16939e-09 
1.29083 -0.67309 5.37092e-05 0.0025 0.546513 0.429325 1.96393 0.00914891 15 4 1 -1.50203e-09 
1.29541 -0.673091 2.20474e-05 0.0025 0.54652 0.429325 1.9639 0.00914879 16 4 1 5.02322e-09 
1.29998 -0.673093 -2.69569e-05 0.0025 0.546527 0.429325 1.96388 0.00914868 17 4 1 1.65354e-09 
1.30456 -0.673096 -9.59106e-05 0.0025 0.546533 0.429325 1.96386 0.00914858 18 4 1 -9.65675e-10 
1.30913 -0.673098 -0.00018364 0.0025 0.546539 0.429325 1.96383 0.00914847 19 4 1 2.97929e-09 
1.3137 -0.673102 -0.000283112 0.0025 0.546545 0.429326 1.96382 0.00914838 20 4 1 1.48067e-09 
1.31828 -0.673105 -0.000380877 0.0025 0.546551 0.429326 1.9638 0.00914828 21 4 1 1.49927e-09 
1.32285 -0.67311 -0.000458897 0.0025 0.546556 0.429327 1.96378 0.0091482 22 4 1 1.31593e-09 
1.32743 -0.673115 -0.000498649 0.0025 0.546561 0.429328 1.96377 0.00914811 23 4 1 -7.97717e-12 
1.332 -0.67312 -0.000486178 0.0025 0.546566 0.429329 1.96376 0.00914802 24 4 1 1.51359e-09 
1.33657 -0.673125 -0.000416199 0.0025 0.546571 0.42933 1.96375 0.00914795 25 4 1 6.32533e-10 
1.34115 -0.67313 -0.000293621 0.0025 0.546575 0.429331 1.96373 0.00914787 26 4 1 -5.92488e-10 
1.34572 -0.673135 -0.000132025 0.0025 0.546579 0.429332 1.96372 0.00914781 27 4 1 8.97066e-10 
1.3503 -0.673139 5.0189e-05 0.0025 0.546582 0.429332 1.96371 0.00914775 28 4 1 4.88883e-10 
1.35487 -0.673143 0.000234453 0.0025 0.546585 0.429332 1.9637 0.00914771 29 4 1 -1.15217e-09 
1.35944 -0.673146 0.000405942 0.0025 0.546587 0.429331 1.96369 0.00914767 30 4 1 1.45563e-10 
1.36402 -0.673149 0.000555693 0.0025 0.546589 0.42933 1.96368 0.00914765 31 4 1 1.65227e-09 
1.36859 -0.673152 0.000680667 0.0025 0.54659 0.429329 1.96367 0.00914763 32 4 1 -1.11892e-09 
1.37316 -0.673154 0.000782281 0.0025 0.54659 0.429327 1.96366 0.00914762 33 4 1 -1.03787e-09 
1.37774 -0.673156 0.00086443 0.0025 0.546591 0.429325 1.96365 0.00914761 34 3 1 1.95267e-09 
1.38231 -0.673159 0.000931984 0.0025 0.546591 0.429323 1.96364 0.00914761 35 4 1 -3.36475e-10 
1.38689 -0.673161 0.000990088 0.0025 0.54659 0.42932 1.96363 0.00914762 36 4 1 -9.77754e-10 
1.39146 -0.673164 0.00104384 0.0025 0.54659 0.429318 1.96362 0.00914763 37 4 1 1.34647e-09 
1.39603 -0.673167 0.00109768 0.0025 0.546589 0.429315 1.96361 0.00914764 38 4 1 2.45188e-11 
1.40061 -0.67317 0.0011544 0.0025 0.546588 0.429312 1.9636 0.00914766 39 4 1 -7.97269e-10 
1.40518 -0.673174 0.00121463 0.0025 0.546587 0.429309 1.96359 0.00914768 40 4 1 6.46476e-10 
1.40976 -0.673178 0.00127764 0.0025 0.546585 0.429306 1.96358 0.0091477 41 4 1 3.74873e-10 
1.41433 -0.673183 0.00134313 0.0025 0.546584 0.429302 1.96357 0.00914773 42 4 1 -6.94494e-10 
1.4189 -0.673188 0.00141252 0.0025 0.546582 0.429299 1.96356 0.00914776 43 4 1 -8.09297e-11 
1.42348 -0.673193 0.00148821 0.0025 0.54658 0.429295 1.96355 0.0091478 44 4 1 8.80364e-10 
1.42805 -0.673199 0.00157165 0.0025 0.546577 0.429291 1.96354 0.00914784 45 4 1 -4.73866e-10 
1.43262 -0.673206 0.00166298 0.0025 0.546574 0.429287 1.96353 0.00914789 46 4 1 -8.45582e-10 
1.4372 -0.673213 0.00176395 0.0025 0.546572 0.429282 1.96352 0.00914793 47 4 1 4.34979e-10 
1.44177 -0.673221 0.00188162 0.0025 0.546568 0.429277 1.96351 0.00914799 48 4 1 6.86212e-11 
1.44635 -0.67323 0.00202776 0.0025 0.546565 0.429272 1.9635 0.00914805 49 4 1 -8.94556e-10 
1.45092 -0.673239 0.0022111 0.0025 0.546561 0.429267 1.96349 0.00914812 50 4 1 -6.72678e-10 
1.45549 -0.673249 0.00242806 0.0025 0.546556 0.429261 1.96348 0.00914819 51 4 1 1.84088e-10 
1.46007 -0.67326 0.00266198 0.0025 0.546551 0.429254 1.96347 0.00914828 52 4 1 -5.843e-10 
1.46464 -0.673272 0.00289535 0.0025 0.546545 0.429247 1.96346 0.00914837 53 4 1 -1.34549e-09 
1.46922 -0.673284 0.00312717 0.0025 0.546539 0.429239 1.96344 0.00914848 54 4 1 -5.18519e-10 
1.47379 -0.673298 0.00337975 0.0025 0.546532 0.429231 1.96343 0.00914859 55 4 1 1.37482e-11 
1.47837 -0.673314 0.00368669 0.0025 0.546525 0.429221 1.96341 0.00914872 56 4 1 -1.16279e-09 
1.48294 -0.673331 0.00406934 0.0025 0.546516 0.429211 1.9634 0.00914886 57 4 1 -1.74643e-09 
1.48751 -0.673349 0.0045201 0.0025 0.546507 0.4292 1.96338 0.00914902 58 4 1 -6.99513e-10 
1.49209 -0.673368 0.00500674 0.0025 0.546496 0.429187 1.96336 0.00914919 59 4 1 -1.08665e-09 
1.49666 -0.67339 0.00549697 0.0025 0.546484 0.429174 1.96334 0.00914939 60 4 1 -1.84227e-09 
-0.498761 -0.673414 0.00598767 0.0025 0.546471 0.429159 1.96332 0.00914961 61 4 1 -1.71027e-09 
-0.494186 -0.673441 0.00651687 0.0025 0.546457 0.429142 1.96329 0.00914985 62 4 1 -1.21336e-09 
-0.489611 -0.673471 0.00714554 0.0025 0.546441 0.429124 1.96327 0.00915012 63 4 1 -1.85337e-09 
-0.485036 -0.673504 0.00791991 0.0025 0.546424 0.429104 1.96324 0.00915041 64 4 1 -2.67997e-09 
-0.480461 -0.673542 0.00884892 0.0025 0.546404 0.429082 1.96321 0.00915074 65 4 1 -2.70876e-09 
-0.475885 -0.673583 0.00991905 0.0025 0.546382 0.429057 1.96317 0.00915111 66 4 1 -3.02372e-09 
-0.47131 -0.673629 0.0111206 0.0025 0.546357 0.429029 1.96313 0.00915152 67 4 1 -3.63662e-09 
-0.466734 -0.673681 0.0124441 0.0025 0.54633 0.428998 1.96309 0.00915198 68 4 1 -4.02489e-09 
-0.462158 -0.673738 0.013863 0.0025 0.546299 0.428963 1.96304 0.00915251 69 4 1 -3.98866e-09 
-0.457581 -0.673802 0.0153558 0.0025 0.546264 0.428924 1.96299 0.00915309 70 4 1 -4.37699e-09 
-0.453005 -0.673874 0.0169546 0.0025 0.546225 0.428882 1.96293 0.00915373 71 4 1 -4.82353e-09 
-0.448428 -0.673955 0.0187382 0.0025 0.546183 0.428834 1.96287 0.00915444 72 4 1 -4.93602e-09 
-0.44385 -0.674045 0.0207684 0.0025 0.546136 0.428782 1.9628 0.00915523 73 4 1 -5.35634e-09 
-0.439272 -0.674143 0.0230162 0.0025 0.546085 0.428725 1.96272 0.00915609 74 4 1 -5.72625e-09 
-0.434694 -0.674248 0.0252731 0.0025 0.546028 0.428663 1.96264 0.00915703 75 4 1 -5.2392e-09 
-0.430115 -0.674361 0.0271762 0.0025 0.545968 0.428596 1.96255 0.00915805 76 4 1 -3.80113e-09 
-0.425536 -0.674482 0.0284619 0.0025 0.545903 0.428525 1.96246 0.00915913 77 4 1 -1.76189e-09 
-0.420956 -0.674608 0.0290925 0.0025 0.545837 0.428452 1.96236 0.00916024 78 4 1 4.19772e-10 
-0.416376 -0.674738 0.0291475 0.0025 0.545772 0.428379 1.96226 0.00916134 79 4 1 2.57108e-09 
-0.411795 -0.674868 0.0287293 0.0025 0.545708 0.428309 1.96217 0.00916241 80 4 1 4.75304e-09 
-0.407213 -0.67499 0.0275256 0.0025 0.545648 0.428242 1.96208 0.00916342 81 4 1 7.72018e-09 
-0.402632 -0.675097 0.0247866 0.0025 0.545594 0.428183 1.962 0.00916433 82 4 1 1.20876e-08 
-0.398049 -0.675184 0.0200881 0.0025 0.54555 0.428135 1.96194 0.00916506 83 4 1 1.62326e-08 
-0.393466 -0.675247 0.0142145 0.0025 0.545519 0.428101 1.96189 0.00916558 84 4 1 2.3222e-08 
-0.388884 -0.675281 0.00420391 0.0025 0.545508 0.428089 1.96187 0.00916576 85 5 1 2.76162e-08 
-0.384301 -0.675276 -0.00580256 0.0025 0.54552 0.428102 1.96189 0.00916557 86 4 1 3.99686e-08 
-0.379718 -0.675224 -0.0171367 0.0025 0.545566 0.428156 1.96195 0.00916479 87 4 1 1.39192e-07 
-0.375136 -0.674983 -0.100085 0.0025 0.545728 0.42834 1.96219 0.00916207 88 4 1 2.98592e-07 
-0.370556 -0.674236 -0.238602 0.0025 0.546129 0.428783 1.96276 0.00915534 89 4 1 3.80756e-07 
-0.365981 -0.672899 -0.365258 0.0025 0.546826 0.429549 1.96376 0.00914368 90 4 1 4.25867e-07 
-0.361412 -0.671012 -0.500479 0.0025 0.547835 0.430664 1.96521 0.00912684 91 4 1 5.93759e-07 
-0.356854 -0.668375 -0.720439 0.0025 0.549252 0.432231 1.96724 0.00910329 92 4 1 8.45632e-07 
-0.352309 -0.664645 -0.999348 0.0025 0.551209 0.43439 1.97004 0.00907096 93 4 1 9.90621e-07 
-0.347783 -0.65981 -1.24764 0.0025 0.553729 0.437169 1.97364 0.00902968 94 4 1 9.79021e-07 
-0.343279 -0.654078 -1.42534 0.0025 0.556712 0.440462 1.97788 0.00898131 95 4 1 8.78245e-07 
-0.338801 -0.647811 -1.52401 0.0025 0.560008 0.444113 1.98256 0.00892844 96 4 1 8.08206e-07 
-0.334351 -0.641221 -1.60055 0.0025 0.563514 0.448009 1.98751 0.0088729 97 4 1 8.36223e-07 
-0.329928 -0.634339 -1.68771 0.0025 0.567205 0.452123 1.99271 0.00881516 98 4 1 9.16459e-07 
-0.325535 -0.627098 -1.78933 0.0025 0.571097 0.456474 1.99817 0.00875507 99 4 1 1.00499e-06 
-0.321173 -0.619505 -1.90005 0.0025 0.575209 0.461081 2.00391 0.00869249 100 4 1 1.05349e-06 
-0.316843 -0.611559 -1.99352 0.0025 0.579526 0.465932 2.00992 0.00862773 101 4 1 1.04337e-06 
-0.312545 -0.60336 -2.05929 0.0025 0.584004 0.470976 2.01611 0.00856159 102 4 1 9.97712e-07 
-0.308281 -0.595029 -2.0969 0.0025 0.588582 0.476151 2.02242 0.008495 103 4 1 9.37515e-07 
-0.30405 -0.58667 -2.11228 0.0025 0.593206 0.481394 2.02876 0.00842877 104 4 1 8.6715e-07 
-0.299852 -0.578364 -2.10464 0.0025 0.597828 0.486651 2.03507 0.00836361 105 4 1 7.94541e-07 
-0.295686 -0.570214 -2.08135 0.0025 0.602408 0.491878 2.04129 0.00830002 106 4 1 7.50403e-07 
-0.291552 -0.562204 -2.0628 0.0025 0.606934 0.497059 2.04741 0.00823813 107 4 1 7.33221e-07 
-0.287448 -0.554332 -2.05038 0.0025 0.611412 0.502201 2.05344 0.00817779 108 4 1 7.05391e-07 
-0.283374 -0.546576 -2.03016 0.0025 0.61584 0.507299 2.05938 0.00811899 109 4 1 6.6883e-07 
-0.279329 -0.538982 -2.00705 0.0025 0.620211 0.512348 2.06521 0.00806177 110 4 1 6.50116e-07 
-0.275312 -0.531525 -1.9919 0.0025 0.62453 0.51735 2.07095 0.00800602 111 4 1 6.45552e-07 
-0.271323 -0.524168 -1.98371 0.0025 0.62881 0.52232 2.07661 0.00795153 112 4 1 6.19654e-07 
-0.267361 -0.516911 -1.96159 0.0025 0.633047 0.527253 2.0822 0.00789831 113 4 1 6.06091e-07 
-0.263425 -0.509796 -1.9553 0.0025 0.637244 0.532155 2.08771 0.00784629 114 4 1 6.16677e-07 
-0.259514 -0.502715 -1.95667 0.0025 0.641422 0.537046 2.09317 0.00779518 115 4 1 5.99434e-07 
-0.255629 -0.495718 -1.94396 0.0025 0.645578 0.541924 2.09859 0.00774499 116 4 1 5.90173e-07 
-0.251769 -0.48881 -1.94289 0.0025 0.649715 0.546792 2.10396 0.00769569 117 4 1 6.27376e-07 
-0.247934 -0.481899 -1.96931 0.0025 0.653864 0.551688 2.10932 0.00764686 118 4 1 6.40505e-07 
-0.244122 -0.474979 -1.98044 0.0025 0.658038 0.556625 2.1147 0.00759835 119 4 1 6.33898e-07 
-0.240335 -0.468071 -1.99571 0.0025 0.662233 0.561599 2.12008 0.00755022 120 4 1 6.508e-07 
-0.236572 -0.461143 -2.01909 0.0025 0.66646 0.566624 2.12548 0.00750233 121 4 1 6.83179e-07 
-0.232833 -0.454165 -2.05854 0.0025 0.670739 0.571725 2.13093 0.00745447 122 4 1 7.06646e-07 
-0.229117 -0.447105 -2.09546 0.0025 0.675081 0.576913 2.13643 0.00740652 123 4 1 6.95711e-07 
-0.225426 -0.439993 -2.11609 0.0025 0.679472 0.582172 2.14198 0.00735866 124 4 1 6.77381e-07 
-0.221759 -0.432889 -2.13092 0.0025 0.683893 0.587482 2.14755 0.00731109 125 4 1 6.93856e-07 
-0.218115 -0.425772 -2.16611 0.0025 0.688353 0.592853 2.15314 0.00726372 126 4 1 7.00516e-07 
-0.214495 -0.418611 -2.18701 0.0025 0.692854 0.598286 2.15876 0.00721653 127 4 1 6.65673e-07 
-0.210898 -0.411454 -2.18814 0.0025 0.697369 0.60375 2.16437 0.00716981 128 4 1 6.46972e-07 
-0.207325 -0.404355 -2.19542 0.0025 0.701886 0.609233 2.16997 0.00712367 129 4 1 6.6348e-07 
-0.203775 -0.397241 -2.21991 0.0025 0.706419 0.614747 2.17556 0.00707796 130 4 1 6.371e-07 
-0.200247 -0.390174 -2.20784 0.0025 0.710952 0.620277 2.18114 0.00703282 131 4 1 6.08672e-07 
-0.196742 -0.383179 -2.20978 0.0025 0.71547 0.625802 2.18667 0.00698842 132 4 1 6.17261e-07 
-0.193258 -0.376207 -2.21711 0.0025 0.719984 0.631337 2.19218 0.0069446 133 4 1 6.11804e-07 
-0.189797 -0.36929 -2.22045 0.0025 0.724497 0.636884 2.19766 0.00690134 134 4 1 6.08315e-07 
-0.186357 -0.362383 -2.23008 0.0025 0.729011 0.642445 2.20313 0.00685861 135 4 1 5.94291e-07 
-0.182938 -0.355531 -2.22704 0.0025 0.733519 0.648013 2.20857 0.00681646 136 4 1 5.71905e-07 
-0.179541 -0.34874 -2.22109 0.0025 0.738011 0.653576 2.21397 0.00677497 137 4 1 5.72028e-07 
-0.176163 -0.341996 -2.22692 0.0025 0.742493 0.65914 2.21934 0.00673407 138 4 1 5.82298e-07 
-0.172806 -0.335282 -2.23956 0.0025 0.746978 0.664721 2.22469 0.00669363 139 4 1 5.72969e-07 
-0.16947 -0.328587 -2.24176 0.0025 0.751465 0.670316 2.23002 0.00665367 140 4 1 5.35824e-07 
-0.166153 -0.321957 -2.22248 0.0025 0.755929 0.675897 2.23531 0.00661438 141 4 1 5.26135e-07 
-0.162855 -0.315424 -2.22238 0.0025 0.76037 0.681464 2.24056 0.00657575 142 4 1 5.63884e-07 
-0.159577 -0.30887 -2.25207 0.0025 0.764824 0.68706 2.2458 0.00653745 143 4 1 5.73554e-07 
-0.156318 -0.302308 -2.26652 0.0025 0.7693 0.692694 2.25104 0.00649941 144 4 1 5.07861e-07 
-0.153077 -0.295825 -2.22913 0.0025 0.773751 0.69831 2.25624 0.00646202 145 4 1 4.93953e-07 
-0.149856 -0.289428 -2.23676 0.0025 0.778171 0.703903 2.26139 0.00642532 146 4 1 5.22496e-07 
-0.146652 -0.283059 -2.24292 0.0025 0.782592 0.709508 2.26652 0.00638902 147 4 1 5.35851e-07 
-0.143467 -0.276678 -2.26885 0.0025 0.787027 0.715143 2.27165 0.00635302 148 4 1 5.19589e-07 
-0.140299 -0.270311 -2.26125 0.0025 0.791466 0.720794 2.27677 0.00631739 149 4 1 4.65042e-07 
-0.137149 -0.264052 -2.23268 0.0025 0.79587 0.726416 2.28182 0.00628243 150 4 1 4.76827e-07 
-0.134016 -0.25785 -2.24729 0.0025 0.800255 0.732026 2.28684 0.00624801 151 4 1 5.03668e-07 
-0.130901 -0.251655 -2.25791 0.0025 0.80465 0.737661 2.29186 0.00621388 152 4 1 5.13959e-07 
-0.127803 -0.24545 -2.28487 0.0025 0.809064 0.743333 2.29688 0.00617998 153 4 1 4.88533e-07 
-0.124721 -0.239257 -2.27076 0.0025 0.81348 0.749016 2.30189 0.00614644 154 4 1 4.40689e-07 
-0.121656 -0.23316 -2.24985 0.0025 0.817861 0.75467 2.30683 0.00611351 155 4 1 4.47063e-07 
-0.118607 -0.227125 -2.25313 0.0025 0.822219 0.760307 2.31174 0.0060811 156 4 1 4.65021e-07 
-0.115575 -0.221104 -2.26173 0.0025 0.826578 0.765957 2.31664 0.00604903 157 4 1 4.8219e-07 
-0.112558 -0.215089 -2.28698 0.0025 0.830954 0.771639 2.32154 0.00601718 158 4 1 4.70337e-07 
-0.109558 -0.20906 -2.28548 0.0025 0.835337 0.777342 2.32643 0.00598561 159 4 1 4.1994e-07 
-0.106573 -0.203135 -2.25747 0.0025 0.839691 0.78302 2.33127 0.00595457 160 4 1 4.14448e-07 
-0.103603 -0.197261 -2.25741 0.0025 0.844016 0.788672 2.33606 0.00592406 161 4 1 4.26566e-07 
-0.100649 -0.191446 -2.25372 0.0025 0.848331 0.794325 2.34083 0.00589392 162 4 1 4.75086e-07 
-0.0977091 -0.185602 -2.31119 0.0025 0.852679 0.80003 2.34562 0.00586387 163 4 1 4.72255e-07 
-0.0947847 -0.179694 -2.3079 0.0025 0.857057 0.805784 2.35043 0.00583392 164 4 1 4.0443e-07 
-0.0918752 -0.173897 -2.28454 0.0025 0.861407 0.811515 2.3552 0.00580446 165 4 1 3.70904e-07 
-0.0889802 -0.168166 -2.25148 0.0025 0.865708 0.817193 2.3599 0.00577562 166 4 1 3.73803e-07 
-0.0860995 -0.162573 -2.24362 0.0025 0.869974 0.822839 2.36454 0.0057473 167 4 1 4.65181e-07 
-0.0832329 -0.156912 -2.32304 0.0025 0.874284 0.828554 2.36922 0.00571896 168 4 1 4.82969e-07 
-0.0803805 -0.151182 -2.33766 0.0025 0.878656 0.834357 2.37395 0.00569051 169 4 1 4.16113e-07 
-0.0775423 -0.14553 -2.32749 0.0025 0.883024 0.840167 2.37867 0.00566236 170 4 1 3.46814e-07 
-0.0747181 -0.139995 -2.26512 0.0025 0.887336 0.845916 2.3833 0.00563485 171 4 1 3.4397e-07 
-0.0719074 -0.134704 -2.25915 0.0025 0.891599 0.851617 2.38787 0.0056079 172 4 1 4.94753e-07 
-0.0691102 -0.129345 -2.38152 0.0025 0.895946 0.857438 2.39252 0.00558069 173 4 1 5.52899e-07 
-0.0663267 -0.123926 -2.43717 0.0025 0.900425 0.863444 2.3973 0.00555293 174 4 1 5.15831e-07 
-0.0635572 -0.118581 -2.48669 0.0025 0.904986 0.86957 2.40215 0.00552495 175 4 1 4.52279e-07 
-0.0608017 -0.113397 -2.45426 0.0025 0.909562 0.875729 2.40701 0.00549715 176 4 1 3.64693e-07 
-0.05806 -0.10861 -2.39236 0.0025 0.91409 0.881843 2.41179 0.00546992 177 4 1 5.32359e-07 
-0.0553318 -0.104093 -2.55769 0.0025 0.918709 0.888098 2.41665 0.00544242 178 4 1 7.86567e-07 
-0.0526176 -0.0993891 -2.79018 0.0025 0.923623 0.894752 2.42182 0.00541346 179 4 1 6.81687e-07 
-0.0499183 -0.0948633 -2.77679 0.0025 0.928722 0.901669 2.42716 0.00538374 180 4 1 5.98912e-07 
-0.0472338 -0.0907508 -2.85503 0.0025 0.933893 0.908709 2.43255 0.00535393 181 4 1 6.75375e-07 
-0.0445643 -0.0867673 -2.93559 0.0025 0.93918 0.915913 2.43806 0.00532379 182 4 1 5.13824e-07 
-0.0419099 -0.0832707 -2.80417 0.0025 0.944459 0.923129 2.44352 0.00529404 183 4 1 6.21054e-07 
-0.0392702 -0.0801445 -2.99037 0.0025 0.949808 0.930474 2.44904 0.00526422 184 4 1 1.06622e-06 
-0.0366457 -0.0764517 -3.40949 0.0025 0.955565 0.938371 2.45498 0.00523251 185 4 1 7.70158e-07 
-0.0340376 -0.072614 -3.19566 0.0025 0.96146 0.946462 2.46104 0.00520042 186 4 1 2.05519e-07 
-0.0314452 -0.0696202 -2.86346 0.0025 0.967003 0.954116 2.46669 0.00517062 187 4 1 5.05418e-07 
-0.028867 -0.0667535 -3.09953 0.0025 0.972451 0.961669 2.47223 0.00514165 188 4 1 8.73112e-07 
-0.0263035 -0.0631706 -3.32473 0.0025 0.978137 0.969531 2.47802 0.00511176 189 4 1 2.55471e-07 
-0.0237552 -0.0598244 -2.77518 0.0025 0.983564 0.977052 2.48351 0.00508355 190 4 1 -6.67645e-08 
-0.0212199 -0.0568042 -2.60352 0.0025 0.98845 0.983865 2.48843 0.00505843 191 4 1 2.59609e-07 
-0.0186967 -0.0526729 -2.66723 0.0025 0.993106 0.990363 2.49312 0.00503471 192 4 1 8.23843e-08 
-0.0161852 -0.0466528 -2.36555 0.0025 0.99739 0.996314 2.49746 0.00501308 193 4 1 -1.18167e-06 
-0.0136836 -0.0400565 -0.781461 0.0025 1.00029 1.00037 2.50035 0.00499854 194 4 1 -1.05896e-06 
-0.0111866 -0.0351759 -0.745532 0.0025 1.00204 1.00288 2.50203 0.00498982 195 4 1 7.95233e-07 
-0.0086938 -0.0305057 -1.97113 0.0025 1.00436 1.00614 2.50437 0.00497827 196 4 1 6.96311e-07 
-0.00620836 -0.0220514 -1.71971 0.0025 1.00704 1.00981 2.50717 0.00496504 197 4 1 -2.33895e-06 
-0.00372875 -0.00997835 1.52811 0.0025 1.00731 1.01019 2.50744 0.00496372 198 3 1 -2.31075e-06 
-0.00124464 -0.00195007 1.69208 0.0025 1.00535 1.00759 2.50532 0.00497338 199 4 1 2.13149e-06 
0.00124464 0.00195007 -1.69208 0.0025 1.00535 1.00759 2.50532 0.00497338 200 4 1 2.13149e-06 
0.00372875 0.00997835 -1.52811 0.0025 1.00731 1.01019 2.50744 0.00496372 201 3 1 -2.31075e-06 
0.00620836 0.0220514 1.71971 0.0025 1.00704 1.00981 2.50717 0.00496504 202 4 1 -2.33895e-06 
0.0086938 0.0305057 1.97113 0.0025 1.00436 1.00614 2.50437 0.00497827 203 4 1 6.96311e-07 
0.0111866 0.0351759 0.745532 0.0025 1.00204 1.00288 2.50203 0.00498982 204 4 1 7.95233e-07 
0.0136836 0.0400565 0.781461 0.0025 1.00029 1.00037 2.50035 0.00499854 205 4 1 -1.05896e-06 
0.0161852 0.0466528 2.36555 0.0025 0.99739 0.996314 2.49746 0.00501308 206 4 1 -1.18167e-06 
0.0186967 0.0526729 2.66723 0.0025 0.993106 0.990363 2.49312 0.00503471 207 4 1 8.23843e-08 
0.0212199 0.0568042 2.60352 0.0025 0.98845 0.983865 2.48843 0.00505843 208 4 1 2.59609e-07 
0.0237552 0.0598244 2.77518 0.0025 0.983564 0.977052 2.48351 0.00508355 209 4 1 -6.67645e-08 
0.0263035 0.0631706 3.32473 0.0025 0.978137 0.969531 2.47802 0.00511176 210 4 1 2.55471e-07 
