# Time [s]: 0.41316
# Columns: pos [m], vel [m/s], acc [m/s^2], mass [kg], dens [kg/m^3], pres [Pa], ene [J/kg], sml [m], id, neighbor, alpha, gradh, ...additional?
1.22413 -0.673077 5.11434e-05 0.0025 0.511058 0.432736 2.15251 0.00978362 0 4 1 -0.000134225 
1.22891 -0.673078 5.4165e-05 0.0025 0.536916 0.426199 1.95005 0.00931244 1 4 1 0.000179253 
1.23345 -0.673078 5.74482e-05 0.0025 0.548247 0.430869 1.96851 0.00911998 2 3 1 -1.90585e-05 
1.23803 -0.673079 6.07707e-05 0.0025 0.545982 0.429205 1.96466 0.00915781 3 5 1 3.48563e-06 
1.24261 -0.673079 6.36442e-05 0.0025 0.54638 0.42936 1.96459 0.00915114 4 4 1 -1.38684e-07 
1.24718 -0.67308 6.59354e-05 0.0025 0.546391 0.429331 1.96436 0.00915095 5 4 1 1.43734e-07 
1.25176 -0.673081 6.79957e-05 0.0025 0.546414 0.42933 1.9643 0.00915056 6 4 1 -3.50441e-09 
1.25633 -0.673081 7.05434e-05 0.0025 0.546428 0.429327 1.96424 0.00915034 7 4 1 8.24205e-09 
1.26091 -0.673082 7.43018e-05 0.0025 0.546442 0.429327 1.96419 0.0091501 8 4 1 4.76964e-09 
1.26548 -0.673083 7.95736e-05 0.0025 0.546455 0.429326 1.96414 0.00914989 9 4 1 5.47925e-09 
1.27006 -0.673084 8.59795e-05 0.0025 0.546466 0.429326 1.9641 0.00914969 10 4 1 -2.238e-09 
1.27463 -0.673085 9.24837e-05 0.0025 0.546478 0.429326 1.96406 0.00914951 11 4 1 4.73095e-09 
1.27921 -0.673086 9.76428e-05 0.0025 0.546488 0.429325 1.96402 0.00914933 12 4 1 2.8577e-09 
1.28378 -0.673087 9.98474e-05 0.0025 0.546497 0.429325 1.96399 0.00914918 13 4 1 3.58778e-09 
1.28836 -0.673089 9.73164e-05 0.0025 0.546505 0.429325 1.96396 0.00914905 14 4 1 2.15132e-09 
1.29293 -0.67309 8.77726e-05 0.0025 0.546513 0.429325 1.96393 0.00914892 15 4 1 -1.52677e-09 
1.29751 -0.673092 6.80252e-05 0.0025 0.54652 0.429324 1.9639 0.0091488 16 4 1 4.99063e-09 
1.30208 -0.673093 3.39485e-05 0.0025 0.546526 0.429324 1.96388 0.00914869 17 4 1 1.61397e-09 
1.30665 -0.673095 -1.86251e-05 0.0025 0.546532 0.429324 1.96386 0.00914859 18 4 1 -1.00761e-09 
1.31123 -0.673098 -9.19234e-05 0.0025 0.546538 0.429324 1.96383 0.00914849 19 4 1 2.94393e-09 
1.3158 -0.673101 -0.000183658 0.0025 0.546544 0.429324 1.96381 0.0091484 20 4 1 1.46362e-09 
1.32038 -0.673104 -0.000285013 0.0025 0.546549 0.429325 1.9638 0.00914831 21 4 1 1.5115e-09 
1.32495 -0.673108 -0.000380553 0.0025 0.546554 0.429325 1.96378 0.00914822 22 4 1 1.36312e-09 
1.32953 -0.673113 -0.000450822 0.0025 0.546559 0.429326 1.96377 0.00914814 23 4 1 7.12081e-11 
1.3341 -0.673118 -0.000477147 0.0025 0.546564 0.429327 1.96375 0.00914806 24 4 1 1.6128e-09 
1.33867 -0.673124 -0.000446993 0.0025 0.546569 0.429328 1.96374 0.00914798 25 4 1 7.33858e-10 
1.34325 -0.673129 -0.000357724 0.0025 0.546573 0.429329 1.96373 0.00914791 26 4 1 -5.0757e-10 
1.34782 -0.673135 -0.000217314 0.0025 0.546577 0.42933 1.96372 0.00914784 27 4 1 9.51711e-10 
1.3524 -0.673139 -4.1877e-05 0.0025 0.546581 0.42933 1.96371 0.00914778 28 4 1 5.07372e-10 
1.35697 -0.673144 0.000148871 0.0025 0.546583 0.42933 1.9637 0.00914773 29 4 1 -1.16737e-09 
1.36154 -0.673148 0.00033647 0.0025 0.546586 0.42933 1.96369 0.00914769 30 4 1 1.0529e-10 
1.36612 -0.673151 0.000507363 0.0025 0.546588 0.429329 1.96368 0.00914766 31 4 1 1.59807e-09 
1.37069 -0.673154 0.000654448 0.0025 0.546589 0.429328 1.96367 0.00914765 32 4 1 -1.17691e-09 
1.37526 -0.673157 0.000776498 0.0025 0.546589 0.429326 1.96366 0.00914764 33 4 1 -1.09266e-09 
1.37984 -0.673159 0.000876232 0.0025 0.54659 0.429324 1.96365 0.00914763 34 3 1 1.90466e-09 
1.38441 -0.673162 0.000958213 0.0025 0.54659 0.429322 1.96364 0.00914763 35 4 1 -3.76339e-10 
1.38899 -0.673164 0.00102754 0.0025 0.546589 0.429319 1.96363 0.00914764 36 4 1 -1.00917e-09 
1.39356 -0.673167 0.00108944 0.0025 0.546589 0.429316 1.96362 0.00914765 37 4 1 1.3229e-09 
1.39813 -0.673171 0.00114906 0.0025 0.546588 0.429314 1.96361 0.00914766 38 4 1 6.7094e-12 
1.40271 -0.673174 0.0012107 0.0025 0.546587 0.429311 1.9636 0.00914768 39 4 1 -8.13002e-10 
1.40728 -0.673178 0.00127667 0.0025 0.546585 0.429307 1.96359 0.0091477 40 4 1 6.29116e-10 
1.41186 -0.673182 0.00134692 0.0025 0.546584 0.429304 1.96358 0.00914773 41 4 1 3.54476e-10 
1.41643 -0.673187 0.00142036 0.0025 0.546582 0.4293 1.96357 0.00914776 42 4 1 -7.16349e-10 
1.421 -0.673192 0.00149705 0.0025 0.54658 0.429296 1.96356 0.0091478 43 4 1 -1.01898e-10 
1.42558 -0.673198 0.0015792 0.0025 0.546577 0.429292 1.96355 0.00914783 44 4 1 8.60224e-10 
1.43015 -0.673204 0.00166971 0.0025 0.546575 0.429288 1.96354 0.00914788 45 4 1 -4.95777e-10 
1.43472 -0.673211 0.00176975 0.0025 0.546572 0.429284 1.96353 0.00914793 46 4 1 -8.70074e-10 
1.4393 -0.673219 0.00187903 0.0025 0.546569 0.429279 1.96352 0.00914798 47 4 1 4.13329e-10 
1.44387 -0.673227 0.00199996 0.0025 0.546565 0.429274 1.96351 0.00914804 48 4 1 5.89176e-11 
1.44845 -0.673236 0.00214194 0.0025 0.546561 0.429268 1.9635 0.00914811 49 4 1 -8.90204e-10 
1.45302 -0.673246 0.00231892 0.0025 0.546557 0.429263 1.96349 0.00914818 50 4 1 -6.68384e-10 
1.45759 -0.673257 0.00253908 0.0025 0.546552 0.429256 1.96347 0.00914826 51 4 1 1.62903e-10 
1.46217 -0.673269 0.00279486 0.0025 0.546547 0.429249 1.96346 0.00914835 52 4 1 -6.47704e-10 
1.46674 -0.673281 0.00306537 0.0025 0.546541 0.429242 1.96345 0.00914845 53 4 1 -1.44049e-09 
1.47132 -0.673295 0.00333344 0.0025 0.546534 0.429233 1.96343 0.00914856 54 4 1 -6.09815e-10 
1.47589 -0.673309 0.0036046 0.0025 0.546527 0.429224 1.96342 0.00914869 55 4 1 -4.06592e-11 
1.48047 -0.673326 0.00391007 0.0025 0.546518 0.429214 1.9634 0.00914882 56 4 1 -1.17965e-09 
1.48504 -0.673344 0.00428803 0.0025 0.546509 0.429204 1.96339 0.00914898 57 4 1 -1.76513e-09 
1.48962 -0.673363 0.00475649 0.0025 0.546499 0.429192 1.96337 0.00914914 58 4 1 -7.75329e-10 
1.49419 -0.673384 0.00529919 0.0025 0.546488 0.429179 1.96335 0.00914933 59 4 1 -1.25109e-09 
1.49876 -0.673408 0.00587712 0.0025 0.546476 0.429164 1.96333 0.00914954 60 4 1 -2.07654e-09 
-0.496661 -0.673433 0.00645965 0.0025 0.546462 0.429148 1.9633 0.00914977 61 4 1 -1.95325e-09 
-0.492086 -0.673462 0.00705533 0.0025 0.546446 0.42913 1.96328 0.00915003 62 4 1 -1.40466e-09 
-0.487511 -0.673494 0.00771818 0.0025 0.546429 0.42911 1.96325 0.00915032 63 4 1 -1.98299e-09 
-0.482935 -0.67353 0.00851813 0.0025 0.54641 0.429089 1.96322 0.00915064 64 4 1 -2.79781e-09 
-0.47836 -0.67357 0.00949597 0.0025 0.546389 0.429065 1.96319 0.00915099 65 4 1 -2.87642e-09 
-0.473784 -0.673615 0.0106473 0.0025 0.546365 0.429038 1.96315 0.00915139 66 4 1 -3.26161e-09 
-0.469209 -0.673665 0.0119526 0.0025 0.546338 0.429008 1.96311 0.00915184 67 4 1 -3.93471e-09 
-0.464633 -0.673721 0.0134049 0.0025 0.546309 0.428975 1.96306 0.00915234 68 4 1 -4.38675e-09 
-0.460056 -0.673783 0.0149889 0.0025 0.546275 0.428937 1.96301 0.0091529 69 4 1 -4.40953e-09 
-0.45548 -0.673852 0.016658 0.0025 0.546237 0.428895 1.96295 0.00915353 70 4 1 -4.77296e-09 
-0.450903 -0.673929 0.0183789 0.0025 0.546196 0.428849 1.96289 0.00915423 71 4 1 -5.04844e-09 
-0.446325 -0.674016 0.0201853 0.0025 0.54615 0.428798 1.96282 0.00915499 72 4 1 -4.88604e-09 
-0.441748 -0.674112 0.0221406 0.0025 0.5461 0.428743 1.96275 0.00915583 73 4 1 -5.03164e-09 
-0.43717 -0.674216 0.0242669 0.0025 0.546045 0.428682 1.96267 0.00915675 74 4 1 -5.26336e-09 
-0.432591 -0.674329 0.0264738 0.0025 0.545986 0.428617 1.96258 0.00915774 75 4 1 -4.85103e-09 
-0.428012 -0.674448 0.028428 0.0025 0.545923 0.428547 1.96249 0.0091588 76 4 1 -3.44403e-09 
-0.423432 -0.674572 0.0296537 0.0025 0.545857 0.428474 1.96239 0.00915991 77 4 1 -1.0137e-09 
-0.418852 -0.6747 0.0299115 0.0025 0.54579 0.428399 1.96229 0.00916104 78 4 1 1.98399e-09 
-0.414271 -0.674829 0.0291706 0.0025 0.545724 0.428327 1.96219 0.00916215 79 4 1 5.18249e-09 
-0.40969 -0.674956 0.0275429 0.0025 0.545662 0.428258 1.9621 0.00916319 80 4 1 8.0713e-09 
-0.405108 -0.675072 0.0252485 0.0025 0.545606 0.428197 1.96202 0.00916412 81 4 1 1.08525e-08 
-0.400526 -0.67517 0.021697 0.0025 0.54556 0.428146 1.96195 0.00916489 82 4 1 1.40622e-08 
-0.395943 -0.675241 0.0161571 0.0025 0.545525 0.428108 1.9619 0.00916548 83 4 1 1.96241e-08 
-0.39136 -0.675286 0.00963328 0.0025 0.545507 0.428087 1.96187 0.00916579 84 5 1 2.48002e-08 
-0.386777 -0.675281 -0.00271671 0.0025 0.545509 0.428089 1.96188 0.00916576 85 4 1 3.3554e-08 
-0.382194 -0.675252 -0.0106163 0.0025 0.545539 0.428126 1.96192 0.00916524 86 4 1 1.0297e-07 
-0.377612 -0.675104 -0.0679016 0.0025 0.545657 0.42826 1.96208 0.00916327 87 4 1 2.56268e-07 
-0.373031 -0.674519 -0.199477 0.0025 0.545981 0.42862 1.96255 0.00915782 88 4 1 3.67092e-07 
-0.368454 -0.673344 -0.330854 0.0025 0.546594 0.429294 1.96343 0.00914757 89 4 1 4.04742e-07 
-0.363884 -0.671624 -0.455355 0.0025 0.547508 0.430303 1.96474 0.00913228 90 4 1 5.36175e-07 
-0.359322 -0.669231 -0.651244 0.0025 0.548799 0.431731 1.96659 0.00911081 91 4 1 7.91416e-07 
-0.354773 -0.665807 -0.929075 0.0025 0.550607 0.433726 1.96918 0.00908089 92 4 1 9.76571e-07 
-0.350241 -0.661223 -1.19104 0.0025 0.552991 0.436355 1.97258 0.00904174 93 4 1 1.0029e-06 
-0.345731 -0.655678 -1.39389 0.0025 0.555877 0.439539 1.9767 0.0089948 94 4 1 9.13532e-07 
-0.341246 -0.649496 -1.50752 0.0025 0.559117 0.443125 1.9813 0.00894267 95 4 1 8.24626e-07 
-0.336788 -0.642959 -1.5878 0.0025 0.562587 0.446978 1.98621 0.00888751 96 4 1 8.34489e-07 
-0.332359 -0.636119 -1.67332 0.0025 0.566249 0.451057 1.99137 0.00883004 97 4 1 9.1425e-07 
-0.327958 -0.628935 -1.77841 0.0025 0.570116 0.455376 1.9968 0.00877015 98 4 1 9.96671e-07 
-0.323588 -0.621374 -1.88295 0.0025 0.574201 0.459951 2.00251 0.00870776 99 4 1 1.05878e-06 
-0.31925 -0.613437 -1.98851 0.0025 0.578499 0.464777 2.00849 0.00864305 100 4 1 1.07106e-06 
-0.314945 -0.605229 -2.06268 0.0025 0.582978 0.469819 2.0147 0.00857666 101 4 1 1.02601e-06 
-0.310673 -0.596859 -2.1067 0.0025 0.587572 0.475009 2.02103 0.00850959 102 4 1 9.65076e-07 
-0.306435 -0.588439 -2.12659 0.0025 0.592225 0.480281 2.02742 0.00844273 103 4 1 8.94921e-07 
-0.302231 -0.580059 -2.12366 0.0025 0.596885 0.485577 2.03379 0.00837682 104 4 1 8.14652e-07 
-0.298058 -0.57181 -2.09786 0.0025 0.601507 0.490848 2.04007 0.00831246 105 4 1 7.6959e-07 
-0.293918 -0.563719 -2.08302 0.0025 0.606075 0.496075 2.04625 0.0082498 106 4 1 7.48659e-07 
-0.289808 -0.555765 -2.06655 0.0025 0.610595 0.501261 2.05234 0.00818874 107 4 1 7.21087e-07 
-0.285729 -0.547933 -2.05066 0.0025 0.615065 0.506406 2.05834 0.00812923 108 4 1 6.8181e-07 
-0.281679 -0.540258 -2.0223 0.0025 0.619476 0.511498 2.06423 0.00807133 109 4 1 6.58679e-07 
-0.277658 -0.532723 -2.00768 0.0025 0.623832 0.51654 2.07002 0.00801498 110 4 1 6.57767e-07 
-0.273664 -0.5253 -1.99931 0.0025 0.628147 0.521549 2.07574 0.00795992 111 4 1 6.35179e-07 
-0.269698 -0.517981 -1.98085 0.0025 0.632422 0.526525 2.08138 0.00790612 112 4 1 6.09519e-07 
-0.265758 -0.510796 -1.96413 0.0025 0.636652 0.531462 2.08693 0.00785359 113 4 1 6.25302e-07 
-0.261844 -0.503663 -1.97397 0.0025 0.64086 0.536387 2.09244 0.00780202 114 4 1 6.12783e-07 
-0.257956 -0.496611 -1.95701 0.0025 0.645048 0.541301 2.0979 0.00775136 115 4 1 5.93141e-07 
-0.254093 -0.489645 -1.9545 0.0025 0.649213 0.546201 2.10331 0.00770164 116 4 1 6.33715e-07 
-0.250254 -0.482693 -1.98067 0.0025 0.653388 0.551126 2.10871 0.00765243 117 4 1 6.48261e-07 
-0.24644 -0.475718 -1.99189 0.0025 0.657587 0.556091 2.11412 0.00760355 118 4 1 6.40914e-07 
-0.24265 -0.468764 -2.00637 0.0025 0.661807 0.561094 2.11953 0.00755507 119 4 1 6.60452e-07 
-0.238885 -0.461792 -2.03219 0.0025 0.66606 0.566149 2.12497 0.00750683 120 4 1 6.91908e-07 
-0.235143 -0.45477 -2.06975 0.0025 0.670366 0.57128 2.13045 0.00745862 121 4 1 7.15982e-07 
-0.231426 -0.447662 -2.10914 0.0025 0.674735 0.576499 2.136 0.00741032 122 4 1 7.0878e-07 
-0.227733 -0.440508 -2.1314 0.0025 0.679156 0.581793 2.14158 0.00736208 123 4 1 6.85815e-07 
-0.224064 -0.433353 -2.14399 0.0025 0.683607 0.587138 2.14719 0.00731414 124 4 1 6.97574e-07 
-0.220419 -0.426176 -2.17645 0.0025 0.688093 0.59254 2.15281 0.00726645 125 4 1 7.11834e-07 
-0.216797 -0.418951 -2.20274 0.0025 0.692623 0.598007 2.15847 0.00721893 126 4 1 6.85161e-07 
-0.2132 -0.411753 -2.208 0.0025 0.697174 0.603515 2.16413 0.00717181 127 4 1 6.58482e-07 
-0.209626 -0.404601 -2.21199 0.0025 0.701728 0.609041 2.16977 0.00712527 128 4 1 6.70418e-07 
-0.206074 -0.397438 -2.23647 0.0025 0.706295 0.614597 2.17541 0.00707919 129 4 1 6.44468e-07 
-0.202546 -0.390309 -2.22253 0.0025 0.710862 0.620166 2.18103 0.00703371 130 4 1 6.18519e-07 
-0.199041 -0.383264 -2.22697 0.0025 0.715412 0.625732 2.1866 0.00698897 131 4 1 6.30215e-07 
-0.195557 -0.376243 -2.23542 0.0025 0.719963 0.631311 2.19215 0.0069448 132 4 1 6.18967e-07 
-0.192096 -0.369267 -2.23579 0.0025 0.72451 0.6369 2.19768 0.00690121 133 4 1 6.18887e-07 
-0.188656 -0.362313 -2.24987 0.0025 0.729059 0.642504 2.20319 0.00685816 134 4 1 6.01073e-07 
-0.185238 -0.355411 -2.24039 0.0025 0.7336 0.648114 2.20867 0.0068157 135 4 1 5.781e-07 
-0.18184 -0.348568 -2.23837 0.0025 0.738124 0.653716 2.2141 0.00677393 136 4 1 5.85002e-07 
-0.178464 -0.341777 -2.24565 0.0025 0.742641 0.659324 2.21951 0.00673273 137 4 1 5.89566e-07 
-0.175107 -0.335007 -2.2557 0.0025 0.747161 0.664949 2.22491 0.006692 138 4 1 5.77852e-07 
-0.171772 -0.328261 -2.25712 0.0025 0.751679 0.670584 2.23028 0.00665178 139 4 1 5.43548e-07 
-0.168456 -0.321596 -2.23848 0.0025 0.756174 0.676205 2.2356 0.00661223 140 4 1 5.36437e-07 
-0.165159 -0.315013 -2.24062 0.0025 0.760649 0.681815 2.24089 0.00657333 141 4 1 5.79775e-07 
-0.161882 -0.308404 -2.27657 0.0025 0.765143 0.687461 2.24617 0.00653473 142 4 1 5.73008e-07 
-0.158624 -0.301797 -2.27564 0.0025 0.769652 0.693137 2.25146 0.00649644 143 4 1 5.07079e-07 
-0.155386 -0.295269 -2.24469 0.0025 0.774129 0.698788 2.25669 0.00645887 144 4 1 5.09054e-07 
-0.152166 -0.288843 -2.25558 0.0025 0.778582 0.704424 2.26187 0.00642193 145 4 1 5.34127e-07 
-0.148964 -0.282413 -2.26326 0.0025 0.783039 0.710076 2.26704 0.00638538 146 4 1 5.45495e-07 
-0.14578 -0.275985 -2.28987 0.0025 0.787512 0.71576 2.27221 0.00634911 147 4 1 5.17292e-07 
-0.142615 -0.269583 -2.27114 0.0025 0.791981 0.721451 2.27736 0.00631328 148 4 1 4.65108e-07 
-0.139467 -0.263289 -2.24678 0.0025 0.79641 0.727106 2.28244 0.00627818 149 4 1 4.91153e-07 
-0.136336 -0.257043 -2.26703 0.0025 0.800827 0.732759 2.2875 0.00624355 150 4 1 5.1734e-07 
-0.133223 -0.250791 -2.27991 0.0025 0.805259 0.738444 2.29255 0.00620918 151 4 1 5.20051e-07 
-0.130127 -0.244538 -2.30323 0.0025 0.80971 0.744163 2.29761 0.00617505 152 4 1 4.86201e-07 
-0.127048 -0.238311 -2.28265 0.0025 0.814154 0.749886 2.30265 0.00614134 153 4 1 4.43868e-07 
-0.123986 -0.232192 -2.26514 0.0025 0.818562 0.755576 2.30763 0.00610827 154 4 1 4.58333e-07 
-0.12094 -0.226116 -2.27176 0.0025 0.822952 0.761257 2.31257 0.00607569 155 4 1 4.78941e-07 
-0.11791 -0.220048 -2.28583 0.0025 0.827349 0.766957 2.3175 0.0060434 156 4 1 4.90076e-07 
-0.114896 -0.213981 -2.30708 0.0025 0.831763 0.772691 2.32244 0.00601133 157 4 1 4.64479e-07 
-0.111899 -0.20792 -2.29569 0.0025 0.836175 0.778433 2.32736 0.00597961 158 4 1 4.17022e-07 
-0.108917 -0.201969 -2.26827 0.0025 0.84055 0.784142 2.33222 0.00594849 159 4 1 4.23753e-07 
-0.10595 -0.196067 -2.27377 0.0025 0.844901 0.789831 2.33704 0.00591785 160 4 1 4.45933e-07 
-0.102999 -0.190204 -2.28073 0.0025 0.849254 0.795536 2.34185 0.00588752 161 4 1 4.89867e-07 
-0.100063 -0.184287 -2.33756 0.0025 0.853646 0.8013 2.34669 0.00585723 162 4 1 4.64235e-07 
-0.0971415 -0.178345 -2.31816 0.0025 0.858056 0.807099 2.35153 0.00582713 163 4 1 3.90365e-07 
-0.0942354 -0.172537 -2.28848 0.0025 0.862422 0.812853 2.35631 0.00579763 164 4 1 3.71077e-07 
-0.0913438 -0.166797 -2.25899 0.0025 0.866736 0.818553 2.36102 0.00576877 165 4 1 4.001e-07 
-0.0884666 -0.161158 -2.27495 0.0025 0.871035 0.824245 2.36569 0.0057403 166 4 1 4.87234e-07 
-0.0856035 -0.155396 -2.35272 0.0025 0.875392 0.830023 2.37042 0.00571173 167 4 1 4.64056e-07 
-0.0827548 -0.149607 -2.34097 0.0025 0.879789 0.835862 2.37517 0.00568318 168 4 1 3.78895e-07 
-0.0799203 -0.143922 -2.31081 0.0025 0.884147 0.841663 2.37987 0.00565517 169 4 1 3.21649e-07 
-0.0770996 -0.138385 -2.24314 0.0025 0.888429 0.847376 2.38448 0.00562791 170 4 1 3.64633e-07 
-0.0742923 -0.133001 -2.27481 0.0025 0.892682 0.853067 2.38903 0.0056011 171 4 1 5.09e-07 
-0.0714985 -0.127444 -2.38687 0.0025 0.897035 0.858896 2.39369 0.00557392 172 4 1 5.08058e-07 
-0.0687184 -0.121855 -2.40746 0.0025 0.901481 0.864859 2.39843 0.00554643 173 4 1 4.39584e-07 
-0.065952 -0.116335 -2.4176 0.0025 0.905947 0.870859 2.40317 0.00551909 174 4 1 3.43739e-07 
-0.0631993 -0.111024 -2.32538 0.0025 0.910352 0.876792 2.40784 0.00549238 175 4 1 3.15529e-07 
-0.0604596 -0.106057 -2.30488 0.0025 0.914688 0.882653 2.41242 0.00546634 176 4 1 5.55673e-07 
-0.0577329 -0.101073 -2.51079 0.0025 0.919161 0.888707 2.41713 0.00543975 177 4 1 6.78799e-07 
-0.0550198 -0.0958798 -2.62541 0.0025 0.923868 0.895079 2.42208 0.00541203 178 4 1 5.12191e-07 
-0.0523208 -0.0910083 -2.57831 0.0025 0.928649 0.901569 2.42708 0.00538417 179 4 1 5.29881e-07 
-0.0496356 -0.0864055 -2.6891 0.0025 0.933485 0.90815 2.43213 0.00535627 180 4 1 5.35443e-07 
-0.0469645 -0.0820138 -2.65497 0.0025 0.938386 0.914826 2.43723 0.0053283 181 4 1 4.43169e-07 
-0.0443073 -0.0782144 -2.62133 0.0025 0.943283 0.92153 2.4423 0.00530064 182 4 1 8.33646e-07 
-0.0416638 -0.0743821 -3.05041 0.0025 0.948479 0.928657 2.44767 0.0052716 183 4 1 1.06533e-06 
-0.0390356 -0.0700732 -3.27874 0.0025 0.954132 0.936391 2.45351 0.00524037 184 4 1 4.79009e-07 
-0.0364234 -0.0663698 -2.89987 0.0025 0.959716 0.944061 2.45924 0.00520988 185 4 1 3.2853e-07 
-0.0338257 -0.0634377 -2.91649 0.0025 0.965077 0.951474 2.46472 0.00518093 186 4 1 8.70785e-07 
-0.0312424 -0.0601113 -3.30537 0.0025 0.970678 0.959215 2.47044 0.00515104 187 4 1 7.3831e-07 
-0.0286746 -0.0565374 -3.16005 0.0025 0.976423 0.967147 2.47629 0.00512073 188 4 1 1.66334e-07 
-0.0261217 -0.0537869 -2.75481 0.0025 0.981829 0.974661 2.48174 0.00509254 189 4 1 5.84324e-07 
-0.0235821 -0.0509352 -3.19081 0.0025 0.987245 0.982221 2.48721 0.0050646 190 4 1 1.09381e-06 
-0.021057 -0.0470859 -3.54648 0.0025 0.993098 0.990362 2.49312 0.00503475 191 4 1 3.35301e-07 
-0.0185473 -0.0429563 -2.99708 0.0025 0.998706 0.998146 2.49877 0.00500648 192 4 1 -1.02894e-06 
-0.0160505 -0.0402113 -1.60141 0.0025 1.00294 1.00408 2.50297 0.00498535 193 4 1 -5.50354e-07 
-0.0135619 -0.0373703 -1.84161 0.0025 1.00628 1.00882 2.50627 0.00496881 194 4 1 7.59178e-07 
-0.0110817 -0.0310855 -2.48033 0.0025 1.00999 1.01405 2.51002 0.00495054 195 4 1 2.02792e-07 
-0.00861135 -0.0223134 -2.03439 0.0025 1.01366 1.01914 2.51371 0.00493261 196 4 1 -1.6095e-06 
-0.00614906 -0.0170216 -0.121516 0.0025 1.01566 1.02193 2.51564 0.0049229 197 4 1 -1.11923e-06 
-0.00368844 -0.0147839 -0.251608 0.0025 1.01626 1.02284 2.5162 0.00492002 198 4 1 2.32351e-07 
-0.00122904 -0.0067241 -0.434156 0.0025 1.01678 1.0236 2.51681 0.00491749 199 3 1 -6.25093e-07 
0.00122904 0.0067241 0.434156 0.0025 1.01678 1.0236 2.51681 0.00491749 200 3 1 -6.25093e-07 
0.00368844 0.0147839 0.251608 0.0025 1.01626 1.02284 2.5162 0.00492002 201 4 1 2.32351e-07 
0.00614906 0.0170216 0.121516 0.0025 1.01566 1.02193 2.51564 0.0049229 202 4 1 -1.11923e-06 
0.00861135 0.0223134 2.03439 0.0025 1.01366 1.01914 2.51371 0.00493261 203 4 1 -1.6095e-06 
0.0110817 0.0310855 2.48033 0.0025 1.00999 1.01405 2.51002 0.00495054 204 4 1 2.02792e-07 
0.0135619 0.0373703 1.84161 0.0025 1.00628 1.00882 2.50627 0.00496881 205 4 1 7.59178e-07 
0.0160505 0.0402113 1.60141 0.0025 1.00294 1.00408 2.50297 0.00498535 206 4 1 -5.50354e-07 
0.0185473 0.0429563 2.99708 0.0025 0.998706 0.998146 2.49877 0.00500648 207 4 1 -1.02894e-06 
0.021057 0.0470859 3.54648 0.0025 0.993098 0.990362 2.49312 0.00503475 208 4 1 3.35301e-07 
0.0235821 0.0509352 3.19081 0.0025 0.987245 0.982221 2.48721 0.0050646 209 4 1 1.09381e-06 
0.0261217 0.0537869 2.75481 0.0025 0.981829 0.974661 2.48174 0.00509254 210 4 1 5.84324e-07 
0.0286746 0.0565374 3.16005 0.0025 0.976423 0.967147 2.47629 0.00512073 211 4 1 1.66334e-07 
