# Time [s]: 0.420073
# Columns: pos [m], vel [m/s], acc [m/s^2], mass [kg], dens [kg/m^3], pres [Pa], ene [J/kg], sml [m], id, neighbor, alpha, gradh, ...additional?
1.21948 -0.673077 3.90767e-05 0.0025 0.511059 0.432736 2.15252 0.00978361 0 4 1 -0.000134225 
1.22426 -0.673077 4.13816e-05 0.0025 0.536917 0.426199 1.95005 0.00931243 1 4 1 0.000179254 
1.2288 -0.673078 4.32917e-05 0.0025 0.548247 0.430869 1.96851 0.00911998 2 3 1 -1.90585e-05 
1.23338 -0.673078 4.4739e-05 0.0025 0.545982 0.429205 1.96466 0.00915781 3 5 1 3.48562e-06 
1.23795 -0.673079 4.58467e-05 0.0025 0.546381 0.429361 1.96459 0.00915113 4 4 1 -1.38681e-07 
1.24253 -0.67308 4.71197e-05 0.0025 0.546392 0.429331 1.96436 0.00915094 5 4 1 1.43737e-07 
1.24711 -0.67308 4.91696e-05 0.0025 0.546415 0.42933 1.96431 0.00915055 6 4 1 -3.50405e-09 
1.25168 -0.673081 5.23689e-05 0.0025 0.546429 0.429328 1.96424 0.00915033 7 4 1 8.24117e-09 
1.25626 -0.673082 5.65708e-05 0.0025 0.546443 0.429327 1.96419 0.00915009 8 4 1 4.76958e-09 
1.26083 -0.673083 6.10277e-05 0.0025 0.546456 0.429327 1.96414 0.00914987 9 4 1 5.48254e-09 
1.26541 -0.673084 6.45132e-05 0.0025 0.546467 0.429327 1.9641 0.00914968 10 4 1 -2.22923e-09 
1.26998 -0.673085 6.55057e-05 0.0025 0.546478 0.429327 1.96406 0.00914949 11 4 1 4.74664e-09 
1.27456 -0.673086 6.22419e-05 0.0025 0.546489 0.429326 1.96402 0.00914932 12 4 1 2.88149e-09 
1.27913 -0.673087 5.25396e-05 0.0025 0.546498 0.429326 1.96399 0.00914916 13 4 1 3.62149e-09 
1.2837 -0.673088 3.35093e-05 0.0025 0.546506 0.429326 1.96396 0.00914903 14 4 1 2.19777e-09 
1.28828 -0.67309 1.5012e-06 0.0025 0.546514 0.429326 1.96393 0.0091489 15 4 1 -1.46466e-09 
1.29285 -0.673091 -4.72841e-05 0.0025 0.546521 0.429326 1.9639 0.00914877 16 4 1 5.06877e-09 
1.29743 -0.673094 -0.000115297 0.0025 0.546528 0.429326 1.96388 0.00914866 17 4 1 1.70247e-09 
1.302 -0.673096 -0.000201514 0.0025 0.546534 0.429326 1.96386 0.00914856 18 4 1 -9.22973e-10 
1.30658 -0.673099 -0.000299517 0.0025 0.546541 0.429327 1.96384 0.00914845 19 4 1 3.00265e-09 
1.31115 -0.673103 -0.000396884 0.0025 0.546547 0.429328 1.96382 0.00914835 20 4 1 1.4718e-09 
1.31572 -0.673107 -0.000476735 0.0025 0.546553 0.429328 1.9638 0.00914825 21 4 1 1.45049e-09 
1.3203 -0.673112 -0.000521368 0.0025 0.546558 0.42933 1.96379 0.00914816 22 4 1 1.22886e-09 
1.32487 -0.673117 -0.000516917 0.0025 0.546563 0.429331 1.96377 0.00914807 23 4 1 -1.21394e-10 
1.32945 -0.673122 -0.000457311 0.0025 0.546568 0.429332 1.96376 0.00914798 24 4 1 1.39339e-09 
1.33402 -0.673127 -0.000346024 0.0025 0.546573 0.429333 1.96375 0.00914791 25 4 1 5.27102e-10 
1.33859 -0.673131 -0.000195015 0.0025 0.546577 0.429334 1.96374 0.00914784 26 4 1 -6.65738e-10 
1.34317 -0.673135 -2.13923e-05 0.0025 0.546581 0.429334 1.96373 0.00914778 27 4 1 8.64951e-10 
1.34774 -0.673139 0.000156898 0.0025 0.546584 0.429334 1.96372 0.00914773 28 4 1 4.97182e-10 
1.35232 -0.673142 0.000324892 0.0025 0.546586 0.429334 1.9637 0.00914769 29 4 1 -1.11193e-09 
1.35689 -0.673145 0.000472888 0.0025 0.546588 0.429333 1.96369 0.00914765 30 4 1 2.05385e-10 
1.36146 -0.673147 0.000596837 0.0025 0.54659 0.429331 1.96368 0.00914763 31 4 1 1.71948e-09 
1.36604 -0.673149 0.000697222 0.0025 0.546591 0.42933 1.96367 0.00914761 32 4 1 -1.05347e-09 
1.37061 -0.673151 0.000777308 0.0025 0.546591 0.429328 1.96366 0.0091476 33 4 1 -9.79476e-10 
1.37519 -0.673153 0.000841654 0.0025 0.546592 0.429326 1.96365 0.0091476 34 3 1 2.00166e-09 
1.37976 -0.673155 0.000895265 0.0025 0.546592 0.429324 1.96364 0.0091476 35 4 1 -2.97545e-10 
1.38433 -0.673158 0.000943126 0.0025 0.546591 0.429322 1.96363 0.0091476 36 4 1 -9.48335e-10 
1.38891 -0.67316 0.000989587 0.0025 0.546591 0.429319 1.96362 0.00914761 37 4 1 1.36855e-09 
1.39348 -0.673163 0.00103754 0.0025 0.54659 0.429316 1.96361 0.00914762 38 4 1 4.31012e-11 
1.39805 -0.673166 0.00108795 0.0025 0.546589 0.429314 1.9636 0.00914763 39 4 1 -7.78065e-10 
1.40263 -0.67317 0.00114047 0.0025 0.546588 0.429311 1.96359 0.00914765 40 4 1 6.68403e-10 
1.4072 -0.673173 0.00119488 0.0025 0.546587 0.429308 1.96358 0.00914767 41 4 1 3.98544e-10 
1.41178 -0.673178 0.0012522 0.0025 0.546586 0.429305 1.96357 0.0091477 42 4 1 -6.71381e-10 
1.41635 -0.673182 0.00131429 0.0025 0.546584 0.429301 1.96356 0.00914772 43 4 1 -5.88955e-11 
1.42092 -0.673188 0.00138247 0.0025 0.546582 0.429298 1.96355 0.00914776 44 4 1 9.03238e-10 
1.4255 -0.673193 0.00145725 0.0025 0.54658 0.429294 1.96355 0.00914779 45 4 1 -4.49438e-10 
1.43007 -0.6732 0.00154049 0.0025 0.546577 0.42929 1.96354 0.00914783 46 4 1 -8.24467e-10 
1.43465 -0.673206 0.00163833 0.0025 0.546575 0.429286 1.96353 0.00914788 47 4 1 4.43954e-10 
1.43922 -0.673214 0.00176057 0.0025 0.546572 0.429281 1.96352 0.00914793 48 4 1 6.24157e-11 
1.44379 -0.673222 0.00191456 0.0025 0.546569 0.429277 1.96351 0.00914798 49 4 1 -9.03367e-10 
1.44837 -0.673231 0.00209757 0.0025 0.546565 0.429271 1.9635 0.00914805 50 4 1 -6.58706e-10 
1.45294 -0.67324 0.00229575 0.0025 0.546561 0.429266 1.96349 0.00914811 51 4 1 2.40466e-10 
1.45752 -0.67325 0.00249375 0.0025 0.546556 0.42926 1.96348 0.0091482 52 4 1 -4.91955e-10 
1.46209 -0.673261 0.0026892 0.0025 0.546551 0.429253 1.96346 0.00914828 53 4 1 -1.25097e-09 
1.46666 -0.673273 0.00289935 0.0025 0.546545 0.429245 1.96345 0.00914838 54 4 1 -4.58702e-10 
1.47124 -0.673286 0.00315215 0.0025 0.546539 0.429238 1.96344 0.00914848 55 4 1 3.13053e-11 
1.47581 -0.6733 0.00346671 0.0025 0.546531 0.429229 1.96342 0.0091486 56 4 1 -1.15256e-09 
1.48039 -0.673316 0.00383801 0.0025 0.546524 0.429219 1.96341 0.00914874 57 4 1 -1.68596e-09 
1.48496 -0.673332 0.00423884 0.0025 0.546515 0.429209 1.96339 0.00914888 58 4 1 -5.49219e-10 
1.48954 -0.67335 0.00463986 0.0025 0.546505 0.429197 1.96337 0.00914904 59 4 1 -8.57056e-10 
1.49411 -0.67337 0.00503486 0.0025 0.546494 0.429185 1.96335 0.00914923 60 4 1 -1.59204e-09 
1.49868 -0.673392 0.00545269 0.0025 0.546482 0.429171 1.96333 0.00914943 61 4 1 -1.50595e-09 
-0.496741 -0.673417 0.00594401 0.0025 0.546469 0.429156 1.96331 0.00914964 62 4 1 -1.0772e-09 
-0.492166 -0.673445 0.00655119 0.0025 0.546455 0.429139 1.96329 0.00914988 63 4 1 -1.74454e-09 
-0.487591 -0.673475 0.00728758 0.0025 0.546439 0.429121 1.96326 0.00915015 64 4 1 -2.53178e-09 
-0.483016 -0.673509 0.00814457 0.0025 0.546421 0.4291 1.96323 0.00915045 65 4 1 -2.48243e-09 
-0.47844 -0.673547 0.00911119 0.0025 0.546401 0.429078 1.9632 0.00915079 66 4 1 -2.71451e-09 
-0.473865 -0.673589 0.010177 0.0025 0.546378 0.429052 1.96316 0.00915117 67 4 1 -3.24023e-09 
-0.469289 -0.673635 0.0113243 0.0025 0.546353 0.429024 1.96313 0.00915159 68 4 1 -3.54442e-09 
-0.464713 -0.673688 0.0125447 0.0025 0.546325 0.428992 1.96308 0.00915206 69 4 1 -3.49187e-09 
-0.460137 -0.673747 0.013875 0.0025 0.546293 0.428957 1.96303 0.00915259 70 4 1 -3.9988e-09 
-0.455561 -0.673813 0.0153982 0.0025 0.546259 0.428918 1.96298 0.00915317 71 4 1 -4.67391e-09 
-0.450984 -0.673887 0.0171926 0.0025 0.54622 0.428875 1.96292 0.00915382 72 4 1 -5.01234e-09 
-0.446407 -0.673969 0.0192599 0.0025 0.546177 0.428827 1.96286 0.00915455 73 4 1 -5.51694e-09 
-0.441829 -0.674058 0.0214613 0.0025 0.546129 0.428774 1.96279 0.00915535 74 4 1 -5.76472e-09 
-0.437251 -0.674156 0.0235414 0.0025 0.546076 0.428715 1.96271 0.00915623 75 4 1 -5.15217e-09 
-0.432673 -0.674262 0.0253004 0.0025 0.546019 0.428652 1.96263 0.00915719 76 4 1 -3.97627e-09 
-0.428094 -0.674377 0.0267251 0.0025 0.545958 0.428585 1.96254 0.00915821 77 4 1 -2.71962e-09 
-0.423515 -0.6745 0.0279191 0.0025 0.545895 0.428515 1.96244 0.00915927 78 4 1 -1.6259e-09 
-0.418935 -0.674628 0.0289484 0.0025 0.54583 0.428444 1.96235 0.00916036 79 4 1 -3.76313e-10 
-0.414355 -0.674757 0.0295671 0.0025 0.545765 0.428371 1.96225 0.00916145 80 4 1 1.68323e-09 
-0.409774 -0.674882 0.0291606 0.0025 0.545701 0.428301 1.96216 0.00916253 81 4 1 4.97203e-09 
-0.405192 -0.674998 0.0272677 0.0025 0.545641 0.428235 1.96207 0.00916354 82 4 1 9.34665e-09 
-0.40061 -0.675101 0.0235938 0.0025 0.545588 0.428177 1.96199 0.00916442 83 4 1 1.43468e-08 
-0.396028 -0.675186 0.0177125 0.0025 0.545547 0.428132 1.96193 0.0091651 84 4 1 1.91988e-08 
-0.391445 -0.675251 0.0112597 0.0025 0.545523 0.428104 1.9619 0.00916552 85 4 1 2.04334e-08 
-0.386862 -0.67528 0.0047295 0.0025 0.545515 0.428095 1.96188 0.00916566 86 5 1 2.59456e-08 
-0.382279 -0.67526 -0.00705728 0.0025 0.545529 0.428111 1.9619 0.00916542 87 4 1 4.96218e-08 
-0.377697 -0.675196 -0.0236114 0.0025 0.545585 0.428177 1.96198 0.00916448 88 4 1 1.56073e-07 
-0.373115 -0.674904 -0.114718 0.0025 0.54577 0.428386 1.96224 0.00916136 89 4 1 3.14224e-07 
-0.368535 -0.674084 -0.256059 0.0025 0.546207 0.428868 1.96287 0.00915404 90 4 1 3.89085e-07 
-0.363961 -0.672673 -0.382749 0.0025 0.546943 0.429678 1.96393 0.00914172 91 4 1 4.36302e-07 
-0.359394 -0.670705 -0.521998 0.0025 0.547997 0.430843 1.96544 0.00912414 92 4 1 6.15882e-07 
-0.354837 -0.667962 -0.7507 0.0025 0.549471 0.432471 1.96755 0.00909967 93 4 1 8.54864e-07 
-0.350294 -0.664123 -1.02072 0.0025 0.551483 0.434691 1.97043 0.00906646 94 4 1 9.84235e-07 
-0.34577 -0.659204 -1.2653 0.0025 0.554045 0.437517 1.97409 0.00902453 95 4 1 9.64486e-07 
-0.341269 -0.653427 -1.43109 0.0025 0.557053 0.440839 1.97837 0.0089758 96 4 1 8.59228e-07 
-0.336794 -0.647148 -1.52506 0.0025 0.560358 0.444501 1.98306 0.00892287 97 4 1 7.92616e-07 
-0.332346 -0.640558 -1.59594 0.0025 0.56386 0.448394 1.988 0.00886745 98 4 1 8.30527e-07 
-0.327927 -0.63369 -1.68794 0.0025 0.567546 0.452504 1.99319 0.00880986 99 4 1 9.10221e-07 
-0.323536 -0.626491 -1.78415 0.0025 0.571431 0.456847 1.99864 0.00874997 100 4 1 9.8553e-07 
-0.319177 -0.618929 -1.88987 0.0025 0.575524 0.461435 2.00435 0.00868773 101 4 1 1.03309e-06 
-0.314849 -0.611029 -1.98051 0.0025 0.579815 0.466257 2.01032 0.00862343 102 4 1 1.0231e-06 
-0.310553 -0.602888 -2.0436 0.0025 0.584261 0.471266 2.01647 0.00855782 103 4 1 9.77487e-07 
-0.306291 -0.594624 -2.07919 0.0025 0.588802 0.4764 2.02272 0.00849182 104 4 1 9.2297e-07 
-0.302061 -0.586342 -2.09669 0.0025 0.593389 0.481601 2.02901 0.00842618 105 4 1 8.48976e-07 
-0.297864 -0.578113 -2.08448 0.0025 0.597971 0.486814 2.03526 0.00836161 106 4 1 7.77903e-07 
-0.293699 -0.57003 -2.06412 0.0025 0.602511 0.491995 2.04143 0.00829861 107 4 1 7.36396e-07 
-0.289566 -0.562093 -2.04296 0.0025 0.606996 0.49713 2.04749 0.00823729 108 4 1 7.21679e-07 
-0.285462 -0.55429 -2.0342 0.0025 0.611435 0.502227 2.05347 0.00817749 109 4 1 6.96986e-07 
-0.281388 -0.546607 -2.01394 0.0025 0.615827 0.507284 2.05936 0.00811916 110 4 1 6.55945e-07 
-0.277343 -0.539072 -1.98975 0.0025 0.620162 0.51229 2.06514 0.00806241 111 4 1 6.36434e-07 
-0.273325 -0.531673 -1.97346 0.0025 0.624443 0.517249 2.07083 0.00800713 112 4 1 6.4027e-07 
-0.269335 -0.524376 -1.97097 0.0025 0.628689 0.522179 2.07645 0.00795306 113 4 1 6.10381e-07 
-0.265372 -0.517177 -1.94396 0.0025 0.632893 0.527074 2.082 0.00790023 114 4 1 5.93172e-07 
-0.261435 -0.51011 -1.93946 0.0025 0.637056 0.531935 2.08746 0.0078486 115 4 1 6.09874e-07 
-0.257524 -0.503092 -1.94156 0.0025 0.641201 0.536787 2.09289 0.00779786 116 4 1 5.92102e-07 
-0.253637 -0.496141 -1.92952 0.0025 0.645326 0.541627 2.09826 0.00774802 117 4 1 5.80758e-07 
-0.249775 -0.489289 -1.92736 0.0025 0.649431 0.546457 2.10359 0.00769905 118 4 1 6.13162e-07 
-0.245938 -0.482439 -1.95047 0.0025 0.653544 0.55131 2.10891 0.00765059 119 4 1 6.28491e-07 
-0.242125 -0.475576 -1.96309 0.0025 0.657682 0.556203 2.11424 0.00760246 120 4 1 6.24872e-07 
-0.238336 -0.46872 -1.9784 0.0025 0.66184 0.561132 2.11957 0.0075547 121 4 1 6.35827e-07 
-0.23457 -0.461853 -1.99772 0.0025 0.666027 0.566109 2.12493 0.0075072 122 4 1 6.63693e-07 
-0.230828 -0.454937 -2.03347 0.0025 0.67026 0.571154 2.13032 0.00745979 123 4 1 6.95983e-07 
-0.22711 -0.447951 -2.07536 0.0025 0.674558 0.576287 2.13577 0.00741227 124 4 1 6.94865e-07 
-0.223416 -0.440912 -2.10118 0.0025 0.678911 0.581499 2.14127 0.00736473 125 4 1 6.65027e-07 
-0.219745 -0.433874 -2.10891 0.0025 0.683294 0.586761 2.14679 0.0073175 126 4 1 6.68001e-07 
-0.216098 -0.426817 -2.13677 0.0025 0.687704 0.592071 2.15232 0.00727057 127 4 1 6.884e-07 
-0.212475 -0.419722 -2.16552 0.0025 0.692156 0.597443 2.15789 0.0072238 128 4 1 6.65008e-07 
-0.208874 -0.412618 -2.17009 0.0025 0.696631 0.602855 2.16346 0.0071774 129 4 1 6.36147e-07 
-0.205297 -0.405582 -2.17289 0.0025 0.701107 0.608286 2.169 0.00713158 130 4 1 6.48628e-07 
-0.201743 -0.398535 -2.19645 0.0025 0.705596 0.613745 2.17455 0.00708621 131 4 1 6.32169e-07 
-0.198211 -0.391513 -2.19074 0.0025 0.71009 0.619223 2.18008 0.00704136 132 4 1 6.01873e-07 
-0.194701 -0.384571 -2.18931 0.0025 0.71457 0.6247 2.18557 0.00699722 133 4 1 6.03049e-07 
-0.191214 -0.377653 -2.19435 0.0025 0.719043 0.630182 2.19103 0.00695369 134 4 1 6.022e-07 
-0.187748 -0.370792 -2.19979 0.0025 0.723515 0.635675 2.19647 0.00691071 135 4 1 5.99453e-07 
-0.184303 -0.363946 -2.2079 0.0025 0.727987 0.641183 2.20189 0.00686825 136 4 1 5.88342e-07 
-0.180879 -0.357139 -2.2091 0.0025 0.732458 0.646701 2.20729 0.00682633 137 4 1 5.68426e-07 
-0.177476 -0.350396 -2.20386 0.0025 0.736915 0.652217 2.21265 0.00678504 138 4 1 5.58537e-07 
-0.174094 -0.343704 -2.20319 0.0025 0.741358 0.65773 2.21798 0.00674438 139 4 1 5.65603e-07 
-0.170732 -0.337045 -2.2137 0.0025 0.745799 0.663253 2.22328 0.00670422 140 4 1 5.70169e-07 
-0.16739 -0.330405 -2.22418 0.0025 0.750246 0.668794 2.22858 0.00666448 141 4 1 5.39964e-07 
-0.164068 -0.323801 -2.20955 0.0025 0.754679 0.674333 2.23383 0.00662533 142 4 1 5.14763e-07 
-0.160765 -0.317308 -2.20028 0.0025 0.759086 0.679853 2.23904 0.00658687 143 4 1 5.35503e-07 
-0.157481 -0.310834 -2.2167 0.0025 0.76349 0.685383 2.24423 0.00654887 144 4 1 5.69889e-07 
-0.154216 -0.304327 -2.24985 0.0025 0.767921 0.690956 2.24943 0.00651109 145 4 1 5.23217e-07 
-0.150969 -0.297866 -2.21968 0.0025 0.772345 0.696534 2.2546 0.00647379 146 4 1 4.82243e-07 
-0.147742 -0.291497 -2.21366 0.0025 0.776734 0.702082 2.25972 0.00643721 147 4 1 5.00701e-07 
-0.144532 -0.285183 -2.21611 0.0025 0.781111 0.707628 2.2648 0.00640114 148 4 1 5.22281e-07 
-0.141341 -0.278877 -2.23988 0.0025 0.785498 0.713199 2.26988 0.00636539 149 4 1 5.28599e-07 
-0.138167 -0.272552 -2.25246 0.0025 0.789902 0.718802 2.27496 0.0063299 150 4 1 4.73418e-07 
-0.135011 -0.266306 -2.22022 0.0025 0.794284 0.724389 2.28 0.00629498 151 4 1 4.56847e-07 
-0.131872 -0.260145 -2.22161 0.0025 0.798634 0.729951 2.28499 0.00626069 152 4 1 4.80202e-07 
-0.12875 -0.254005 -2.22666 0.0025 0.802981 0.735519 2.28995 0.0062268 153 4 1 5.0134e-07 
-0.125645 -0.247868 -2.25501 0.0025 0.807343 0.74112 2.29492 0.00619315 154 4 1 5.00117e-07 
-0.122557 -0.241713 -2.26095 0.0025 0.811723 0.746753 2.29989 0.00615974 155 4 1 4.49981e-07 
-0.119485 -0.235623 -2.23708 0.0025 0.816081 0.752372 2.30483 0.00612684 156 4 1 4.32287e-07 
-0.11643 -0.229622 -2.23094 0.0025 0.820409 0.757964 2.30971 0.00609452 157 4 1 4.47701e-07 
-0.113391 -0.22365 -2.23524 0.0025 0.824726 0.763554 2.31456 0.00606262 158 4 1 4.64033e-07 
-0.110367 -0.217705 -2.25252 0.0025 0.829051 0.769167 2.31941 0.00603099 159 4 1 4.77984e-07 
-0.107359 -0.211723 -2.27505 0.0025 0.833397 0.774816 2.32426 0.00599954 160 4 1 4.35053e-07 
-0.104368 -0.205805 -2.24731 0.0025 0.837731 0.780461 2.32909 0.00596851 161 4 1 4.09316e-07 
-0.101391 -0.199959 -2.24456 0.0025 0.842033 0.786079 2.33387 0.00593801 162 4 1 4.05627e-07 
-0.0984295 -0.194166 -2.22444 0.0025 0.846312 0.791677 2.3386 0.00590799 163 4 1 4.36042e-07 
-0.0954829 -0.188421 -2.26042 0.0025 0.850596 0.797296 2.34333 0.00587823 164 4 1 4.82603e-07 
-0.0925512 -0.182577 -2.29788 0.0025 0.854926 0.802982 2.34809 0.00584846 165 4 1 4.37699e-07 
-0.0896344 -0.176795 -2.28052 0.0025 0.859263 0.808689 2.35285 0.00581894 166 4 1 3.95053e-07 
-0.0867322 -0.171071 -2.26884 0.0025 0.863572 0.814371 2.35756 0.00578991 167 4 1 3.60631e-07 
-0.0838445 -0.165492 -2.22244 0.0025 0.867833 0.820004 2.36221 0.00576148 168 4 1 4.11015e-07 
-0.0809707 -0.159982 -2.27378 0.0025 0.872095 0.825651 2.36684 0.00573332 169 4 1 5.00706e-07 
-0.0781111 -0.154381 -2.33749 0.0025 0.876437 0.831411 2.37155 0.00570492 170 4 1 4.83221e-07 
-0.0752658 -0.148834 -2.35682 0.0025 0.880837 0.837259 2.37631 0.00567642 171 4 1 4.38915e-07 
-0.0724346 -0.143353 -2.35696 0.0025 0.885251 0.843136 2.38106 0.00564812 172 4 1 3.69743e-07 
-0.0696176 -0.138148 -2.29455 0.0025 0.889626 0.848977 2.38576 0.00562034 173 4 1 4.49418e-07 
-0.0668143 -0.133119 -2.38489 0.0025 0.894031 0.854874 2.39047 0.00559265 174 4 1 6.06554e-07 
-0.0640249 -0.128048 -2.50562 0.0025 0.898599 0.860997 2.39535 0.00556422 175 4 1 6.39827e-07 
-0.06125 -0.123072 -2.60232 0.0025 0.903342 0.867366 2.4004 0.005535 176 4 1 6.33852e-07 
-0.0584899 -0.118252 -2.67788 0.0025 0.908225 0.873934 2.40559 0.00550524 177 4 1 5.54476e-07 
-0.0557447 -0.113725 -2.6576 0.0025 0.913166 0.880593 2.41081 0.00547545 178 4 1 4.96672e-07 
-0.0530144 -0.109727 -2.64537 0.0025 0.918115 0.887289 2.41603 0.00544594 179 4 1 7.41597e-07 
-0.0502987 -0.105857 -2.90674 0.0025 0.92326 0.894266 2.42143 0.00541559 180 4 1 9.04802e-07 
-0.0475988 -0.101844 -3.06762 0.0025 0.928719 0.901668 2.42715 0.00538376 181 4 1 6.97224e-07 
-0.0449149 -0.0981553 -3.01766 0.0025 0.934284 0.909237 2.43296 0.00535169 182 4 1 6.57192e-07 
-0.042247 -0.0946791 -3.10496 0.0025 0.93988 0.916871 2.43878 0.00531983 183 4 1 6.48179e-07 
-0.0395951 -0.091224 -3.07228 0.0025 0.945499 0.924545 2.44461 0.00528822 184 4 1 4.06752e-07 
-0.0369587 -0.0882079 -2.86793 0.0025 0.950965 0.932042 2.45024 0.00525782 185 4 1 6.29662e-07 
-0.0343372 -0.0852701 -3.11765 0.0025 0.956463 0.93961 2.45589 0.0052276 186 4 1 9.97004e-07 
-0.0317311 -0.0815568 -3.41113 0.0025 0.962287 0.947617 2.46188 0.00519595 187 4 1 5.27304e-07 
-0.0291412 -0.0778176 -3.0718 0.0025 0.968035 0.955522 2.46776 0.0051651 188 4 1 -1.25883e-07 
-0.026566 -0.0746342 -2.57775 0.0025 0.973153 0.962604 2.47296 0.00513794 189 4 1 4.0288e-08 
-0.0240032 -0.070902 -2.60359 0.0025 0.977793 0.969039 2.47768 0.00511356 190 4 1 -1.40655e-07 
-0.0214524 -0.0654246 -2.04158 0.0025 0.981885 0.974703 2.48184 0.00509225 191 4 1 -8.36293e-07 
-0.018911 -0.0592343 -1.18224 0.0025 0.984928 0.978953 2.4849 0.00507651 192 4 1 -3.59264e-07 
-0.0163759 -0.0531194 -1.42805 0.0025 0.987477 0.982538 2.48743 0.00506341 193 4 1 8.11835e-07 
-0.0138475 -0.0475736 -2.30353 0.0025 0.990549 0.98678 2.49055 0.00504771 194 4 1 -2.57992e-07 
-0.0113281 -0.0397483 -0.986366 0.0025 0.993052 0.990199 2.49316 0.00503498 195 3 1 -2.56297e-06 
-0.00881255 -0.0294966 1.60495 0.0025 0.992861 0.989999 2.49294 0.00503595 196 4 1 -1.29275e-06 
-0.00629217 -0.020125 0.842826 0.0025 0.991473 0.988191 2.49142 0.005043 197 5 1 2.49269e-06 
-0.00376955 -0.0143658 -2.2328 0.0025 0.992528 0.989628 2.49249 0.00503764 198 4 1 1.89597e-06 
-0.00125452 -0.00601377 -1.84254 0.0025 0.995211 0.993232 2.49536 0.00502406 199 3 1 -2.72265e-06 
0.00125452 0.00601377 1.84254 0.0025 0.995211 0.993232 2.49536 0.00502406 200 3 1 -2.72265e-06 
0.00376955 0.0143658 2.2328 0.0025 0.992528 0.989628 2.49249 0.00503764 201 4 1 1.89597e-06 
0.00629217 0.020125 -0.842826 0.0025 0.991473 0.988191 2.49142 0.005043 202 5 1 2.49269e-06 
0.00881255 0.0294966 -1.60495 0.0025 0.992861 0.989999 2.49294 0.00503595 203 4 1 -1.29275e-06 
0.0113281 0.0397483 0.986366 0.0025 0.993052 0.990199 2.49316 0.00503498 204 3 1 -2.56297e-06 
0.0138475 0.0475736 2.30353 0.0025 0.990549 0.98678 2.49055 0.00504771 205 4 1 -2.57992e-07 
0.0163759 0.0531194 1.42805 0.0025 0.987477 0.982538 2.48743 0.00506341 206 4 1 8.11835e-07 
0.018911 0.0592343 1.18224 0.0025 0.984928 0.978953 2.4849 0.00507651 207 4 1 -3.59264e-07 
0.0214524 0.0654246 2.04158 0.0025 0.981885 0.974703 2.48184 0.00509225 208 4 1 -8.36293e-07 
0.0240032 0.070902 2.60359 0.0025 0.977793 0.969039 2.47768 0.00511356 209 4 1 -1.40655e-07 
0.026566 0.0746342 2.57775 0.0025 0.973153 0.962604 2.47296 0.00513794 210 4 1 4.0288e-08 
