# Time [s]: 0.423927
# Columns: pos [m], vel [m/s], acc [m/s^2], mass [kg], dens [kg/m^3], pres [Pa], ene [J/kg], sml [m], id, neighbor, alpha, gradh, ...additional?
1.21688 -0.673077 3.23301e-05 0.0025 0.511059 0.432736 2.15252 0.00978361 0 4 1 -0.000134225 
1.22166 -0.673077 3.38135e-05 0.0025 0.536917 0.426199 1.95005 0.00931243 1 4 1 0.000179254 
1.2262 -0.673078 3.48032e-05 0.0025 0.548247 0.43087 1.96851 0.00911997 2 3 1 -1.90585e-05 
1.23079 -0.673078 3.54684e-05 0.0025 0.545983 0.429206 1.96466 0.0091578 3 5 1 3.48562e-06 
1.23536 -0.673079 3.62229e-05 0.0025 0.546381 0.429361 1.9646 0.00915112 4 4 1 -1.3868e-07 
1.23994 -0.673079 3.76187e-05 0.0025 0.546392 0.429332 1.96436 0.00915094 5 4 1 1.43737e-07 
1.24451 -0.67308 4.00064e-05 0.0025 0.546415 0.429331 1.96431 0.00915055 6 4 1 -3.50451e-09 
1.24909 -0.673081 4.3273e-05 0.0025 0.546429 0.429328 1.96424 0.00915032 7 4 1 8.24156e-09 
1.25366 -0.673082 4.67457e-05 0.0025 0.546443 0.429328 1.96419 0.00915008 8 4 1 4.77208e-09 
1.25824 -0.673083 4.92732e-05 0.0025 0.546456 0.429327 1.96414 0.00914987 9 4 1 5.48821e-09 
1.26281 -0.673083 4.93726e-05 0.0025 0.546468 0.429327 1.9641 0.00914967 10 4 1 -2.21961e-09 
1.26739 -0.673084 4.52783e-05 0.0025 0.546479 0.429327 1.96406 0.00914948 11 4 1 4.76104e-09 
1.27196 -0.673086 3.48035e-05 0.0025 0.546489 0.429327 1.96402 0.00914931 12 4 1 2.90186e-09 
1.27654 -0.673087 1.51134e-05 0.0025 0.546499 0.429327 1.96399 0.00914915 13 4 1 3.64939e-09 
1.28111 -0.673088 -1.72847e-05 0.0025 0.546507 0.429327 1.96396 0.00914902 14 4 1 2.23433e-09 
1.28568 -0.67309 -6.59616e-05 0.0025 0.546515 0.429327 1.96393 0.00914889 15 4 1 -1.4203e-09 
1.29026 -0.673092 -0.000133195 0.0025 0.546522 0.429327 1.9639 0.00914876 16 4 1 5.11636e-09 
1.29483 -0.673094 -0.000218036 0.0025 0.546529 0.429327 1.96388 0.00914864 17 4 1 1.74426e-09 
1.29941 -0.673097 -0.000314541 0.0025 0.546536 0.429328 1.96386 0.00914853 18 4 1 -8.9933e-10 
1.30398 -0.673101 -0.000411165 0.0025 0.546542 0.429329 1.96384 0.00914842 19 4 1 2.99583e-09 
1.30856 -0.673105 -0.000492075 0.0025 0.546549 0.42933 1.96382 0.00914832 20 4 1 1.42677e-09 
1.31313 -0.673109 -0.00054041 0.0025 0.546555 0.429331 1.9638 0.00914822 21 4 1 1.36805e-09 
1.3177 -0.673114 -0.000542547 0.0025 0.54656 0.429332 1.96379 0.00914812 22 4 1 1.11956e-09 
1.32228 -0.673119 -0.00049189 0.0025 0.546566 0.429333 1.96378 0.00914803 23 4 1 -2.39451e-10 
1.32685 -0.673123 -0.000390739 0.0025 0.546571 0.429334 1.96376 0.00914795 24 4 1 1.28722e-09 
1.33143 -0.673128 -0.000249604 0.0025 0.546575 0.429335 1.96375 0.00914787 25 4 1 4.50206e-10 
1.336 -0.673132 -8.43219e-05 0.0025 0.546579 0.429336 1.96374 0.00914781 26 4 1 -7.03589e-10 
1.34057 -0.673135 8.78987e-05 0.0025 0.546583 0.429336 1.96373 0.00914775 27 4 1 8.66774e-10 
1.34515 -0.673138 0.000252161 0.0025 0.546585 0.429336 1.96372 0.0091477 28 4 1 5.31556e-10 
1.34972 -0.673141 0.000398247 0.0025 0.546588 0.429335 1.96371 0.00914767 29 4 1 -1.05645e-09 
1.3543 -0.673143 0.000521267 0.0025 0.546589 0.429334 1.96369 0.00914763 30 4 1 2.70081e-10 
1.35887 -0.673145 0.000620842 0.0025 0.546591 0.429332 1.96368 0.00914761 31 4 1 1.78395e-09 
1.36344 -0.673146 0.000699586 0.0025 0.546591 0.429331 1.96367 0.0091476 32 4 1 -9.95146e-10 
1.36802 -0.673148 0.000761673 0.0025 0.546592 0.429329 1.96366 0.00914759 33 4 1 -9.30189e-10 
1.37259 -0.67315 0.000811901 0.0025 0.546593 0.429327 1.96365 0.00914758 34 4 1 2.04096e-09 
1.37716 -0.673152 0.000855102 0.0025 0.546593 0.429325 1.96364 0.00914758 35 3 1 -2.67745e-10 
1.38174 -0.673154 0.000895529 0.0025 0.546592 0.429323 1.96363 0.00914758 36 4 1 -9.2602e-10 
1.38631 -0.673157 0.00093613 0.0025 0.546592 0.42932 1.96362 0.00914759 37 4 1 1.38687e-09 
1.39089 -0.673159 0.000978149 0.0025 0.546592 0.429318 1.96361 0.0091476 38 4 1 6.11952e-11 
1.39546 -0.673162 0.00102158 0.0025 0.546591 0.429315 1.9636 0.00914761 39 4 1 -7.58065e-10 
1.40003 -0.673165 0.00106635 0.0025 0.54659 0.429313 1.96359 0.00914762 40 4 1 6.89868e-10 
1.40461 -0.673169 0.00111323 0.0025 0.546589 0.42931 1.96359 0.00914764 41 4 1 4.19701e-10 
1.40918 -0.673173 0.00116371 0.0025 0.546588 0.429307 1.96358 0.00914766 42 4 1 -6.51208e-10 
1.41376 -0.673177 0.001219 0.0025 0.546586 0.429304 1.96357 0.00914769 43 4 1 -3.86391e-11 
1.41833 -0.673182 0.00127986 0.0025 0.546585 0.4293 1.96356 0.00914771 44 4 1 9.23677e-10 
1.4229 -0.673188 0.0013483 0.0025 0.546583 0.429297 1.96355 0.00914775 45 4 1 -4.33022e-10 
1.42748 -0.673194 0.00142975 0.0025 0.54658 0.429293 1.96354 0.00914778 46 4 1 -8.19206e-10 
1.43205 -0.6732 0.00153244 0.0025 0.546578 0.429289 1.96353 0.00914782 47 4 1 4.35811e-10 
1.43662 -0.673207 0.0016625 0.0025 0.546575 0.429285 1.96352 0.00914787 48 4 1 5.14649e-11 
1.4412 -0.673215 0.0018177 0.0025 0.546572 0.429281 1.96351 0.00914792 49 4 1 -8.95692e-10 
1.44577 -0.673223 0.0019864 0.0025 0.546569 0.429276 1.9635 0.00914798 50 4 1 -6.15177e-10 
1.45035 -0.673232 0.00215531 0.0025 0.546565 0.42927 1.96349 0.00914804 51 4 1 3.15643e-10 
1.45492 -0.673241 0.0023214 0.0025 0.546561 0.429265 1.96348 0.00914812 52 4 1 -4.13044e-10 
1.45949 -0.673251 0.00249811 0.0025 0.546556 0.429258 1.96347 0.0091482 53 4 1 -1.20063e-09 
1.46407 -0.673262 0.00270861 0.0025 0.54655 0.429252 1.96346 0.00914829 54 4 1 -4.45804e-10 
1.46864 -0.673274 0.00296962 0.0025 0.546545 0.429244 1.96345 0.00914838 55 4 1 3.44158e-11 
1.47322 -0.673287 0.00327776 0.0025 0.546538 0.429236 1.96343 0.0091485 56 4 1 -1.10996e-09 
1.47779 -0.673301 0.00361009 0.0025 0.546531 0.429227 1.96342 0.00914862 57 4 1 -1.56741e-09 
1.48237 -0.673316 0.00394033 0.0025 0.546523 0.429217 1.9634 0.00914875 58 4 1 -3.60374e-10 
1.48694 -0.673333 0.0042606 0.0025 0.546514 0.429207 1.96338 0.0091489 59 4 1 -6.46503e-10 
1.49151 -0.673351 0.00459267 0.0025 0.546504 0.429195 1.96337 0.00914907 60 4 1 -1.41856e-09 
1.49609 -0.673372 0.00497847 0.0025 0.546493 0.429182 1.96335 0.00914925 61 4 1 -1.39395e-09 
-0.499336 -0.673395 0.00545583 0.0025 0.546481 0.429168 1.96333 0.00914945 62 4 1 -9.97597e-10 
-0.494761 -0.67342 0.00603988 0.0025 0.546468 0.429153 1.96331 0.00914967 63 4 1 -1.64025e-09 
-0.490186 -0.673448 0.00672515 0.0025 0.546453 0.429136 1.96328 0.00914992 64 4 1 -2.36041e-09 
-0.485611 -0.673479 0.0074997 0.0025 0.546437 0.429118 1.96325 0.00915019 65 4 1 -2.22861e-09 
-0.481036 -0.673513 0.00835102 0.0025 0.546418 0.429097 1.96323 0.0091505 66 4 1 -2.37145e-09 
-0.476461 -0.673551 0.00926474 0.0025 0.546398 0.429074 1.96319 0.00915084 67 4 1 -2.81277e-09 
-0.471885 -0.673594 0.0102385 0.0025 0.546375 0.429048 1.96316 0.00915123 68 4 1 -3.08599e-09 
-0.467309 -0.673642 0.0113089 0.0025 0.546349 0.429019 1.96312 0.00915165 69 4 1 -3.10754e-09 
-0.462734 -0.673696 0.0125549 0.0025 0.546321 0.428987 1.96307 0.00915213 70 4 1 -3.77505e-09 
-0.458157 -0.673756 0.0140568 0.0025 0.546289 0.428952 1.96303 0.00915266 71 4 1 -4.59668e-09 
-0.453581 -0.673823 0.0158328 0.0025 0.546254 0.428912 1.96297 0.00915325 72 4 1 -4.94447e-09 
-0.449004 -0.673897 0.0177899 0.0025 0.546214 0.428868 1.96291 0.00915392 73 4 1 -5.27795e-09 
-0.444427 -0.673979 0.0197481 0.0025 0.54617 0.428819 1.96285 0.00915466 74 4 1 -5.33698e-09 
-0.439849 -0.674069 0.0215677 0.0025 0.546121 0.428765 1.96277 0.00915548 75 4 1 -4.83613e-09 
-0.435271 -0.674168 0.0232624 0.0025 0.546068 0.428706 1.9627 0.00915636 76 4 1 -4.23377e-09 
-0.430693 -0.674277 0.0249589 0.0025 0.546012 0.428644 1.96261 0.00915731 77 4 1 -3.84621e-09 
-0.426114 -0.674395 0.0267388 0.0025 0.545951 0.428577 1.96252 0.00915832 78 4 1 -3.51173e-09 
-0.421535 -0.674518 0.0284348 0.0025 0.545888 0.428507 1.96243 0.00915938 79 4 1 -2.5089e-09 
-0.416955 -0.674643 0.0295793 0.0025 0.545823 0.428435 1.96234 0.00916048 80 4 1 -3.21257e-10 
-0.412374 -0.674768 0.0296842 0.0025 0.545757 0.428362 1.96224 0.00916159 81 4 1 2.97884e-09 
-0.407793 -0.67489 0.028393 0.0025 0.545693 0.428292 1.96215 0.00916266 82 4 1 7.1089e-09 
-0.403212 -0.675006 0.0255609 0.0025 0.545635 0.428228 1.96206 0.00916363 83 4 1 1.12729e-08 
-0.39863 -0.67511 0.0218196 0.0025 0.545587 0.428175 1.96199 0.00916445 84 4 1 1.36972e-08 
-0.394047 -0.675194 0.0178469 0.0025 0.545549 0.428133 1.96193 0.00916508 85 4 1 1.64515e-08 
-0.389464 -0.675247 0.0106545 0.0025 0.545525 0.428107 1.9619 0.00916548 86 4 1 2.15554e-08 
-0.384882 -0.675274 0.00273892 0.0025 0.545519 0.4281 1.96189 0.00916558 87 5 1 2.82232e-08 
-0.380299 -0.675244 -0.00780319 0.0025 0.545537 0.428121 1.96191 0.00916528 88 4 1 5.68547e-08 
-0.375716 -0.675162 -0.0304703 0.0025 0.545603 0.428198 1.96201 0.00916416 89 4 1 1.72863e-07 
-0.371135 -0.674825 -0.128847 0.0025 0.545812 0.428432 1.9623 0.00916066 90 4 1 3.27405e-07 
-0.366556 -0.673941 -0.27181 0.0025 0.546281 0.42895 1.96298 0.00915279 91 4 1 3.96073e-07 
-0.361982 -0.672464 -0.399325 0.0025 0.547054 0.429801 1.96409 0.00913986 92 4 1 4.45666e-07 
-0.357416 -0.670427 -0.541293 0.0025 0.548149 0.43101 1.96566 0.00912161 93 4 1 6.30715e-07 
-0.35286 -0.667581 -0.774508 0.0025 0.549669 0.43269 1.96783 0.00909638 94 4 1 8.60787e-07 
-0.348319 -0.663658 -1.03914 0.0025 0.551727 0.43496 1.97078 0.00906246 95 4 1 9.76298e-07 
-0.343798 -0.658669 -1.27709 0.0025 0.554322 0.437822 1.97448 0.00902004 96 4 1 9.47901e-07 
-0.339299 -0.652859 -1.43301 0.0025 0.557345 0.441163 1.97878 0.0089711 97 4 1 8.467e-07 
-0.334827 -0.646572 -1.52697 0.0025 0.560655 0.44483 1.98348 0.00891814 98 4 1 7.85943e-07 
-0.330381 -0.640012 -1.59526 0.0025 0.564157 0.448724 1.98842 0.00886278 99 4 1 8.14188e-07 
-0.325964 -0.633161 -1.68017 0.0025 0.567833 0.452824 1.99359 0.00880541 100 4 1 8.94212e-07 
-0.321576 -0.625992 -1.77598 0.0025 0.5717 0.457148 1.99901 0.00874585 101 4 1 9.70745e-07 
-0.317218 -0.61847 -1.87816 0.0025 0.57577 0.461711 2.00469 0.00868402 102 4 1 1.01458e-06 
-0.312892 -0.610623 -1.96667 0.0025 0.580033 0.466502 2.01062 0.0086202 103 4 1 1.00738e-06 
-0.308598 -0.602548 -2.02951 0.0025 0.584447 0.471476 2.01672 0.0085551 104 4 1 9.57522e-07 
-0.304336 -0.594358 -2.06038 0.0025 0.588951 0.476569 2.02293 0.00848966 105 4 1 9.03099e-07 
-0.300108 -0.586142 -2.0784 0.0025 0.593498 0.481725 2.02916 0.00842463 106 4 1 8.33994e-07 
-0.295912 -0.577989 -2.06603 0.0025 0.59804 0.486892 2.03536 0.00836065 107 4 1 7.66174e-07 
-0.291747 -0.569973 -2.04768 0.0025 0.602541 0.492029 2.04147 0.00829819 108 4 1 7.25038e-07 
-0.287613 -0.562113 -2.02581 0.0025 0.606989 0.497122 2.04749 0.00823738 109 4 1 7.05782e-07 
-0.283509 -0.554375 -2.01485 0.0025 0.611389 0.502174 2.05341 0.0081781 110 4 1 6.84697e-07 
-0.279435 -0.546753 -1.99703 0.0025 0.615742 0.507187 2.05924 0.00812028 111 4 1 6.50536e-07 
-0.275389 -0.539278 -1.97573 0.0025 0.620043 0.512153 2.06499 0.00806395 112 4 1 6.24421e-07 
-0.271371 -0.531943 -1.9549 0.0025 0.62429 0.517071 2.07063 0.0080091 113 4 1 6.28668e-07 
-0.26738 -0.524696 -1.95545 0.0025 0.6285 0.52196 2.07621 0.00795545 114 4 1 6.05447e-07 
-0.263415 -0.517556 -1.93016 0.0025 0.632673 0.526817 2.08171 0.00790298 115 4 1 5.82279e-07 
-0.259477 -0.510539 -1.92227 0.0025 0.636803 0.531639 2.08713 0.00785172 116 4 1 6.01381e-07 
-0.255564 -0.503581 -1.92773 0.0025 0.640916 0.536452 2.09251 0.00780133 117 4 1 5.8597e-07 
-0.251675 -0.496679 -1.91502 0.0025 0.64501 0.541256 2.09785 0.00775181 118 4 1 5.68048e-07 
-0.247812 -0.489875 -1.91027 0.0025 0.649082 0.546046 2.10314 0.00770319 119 4 1 5.98483e-07 
-0.243972 -0.483084 -1.93131 0.0025 0.653159 0.550855 2.10841 0.00765511 120 4 1 6.17163e-07 
-0.240157 -0.476279 -1.94481 0.0025 0.657258 0.555701 2.11369 0.00760736 121 4 1 6.14874e-07 
-0.236365 -0.469471 -1.95957 0.0025 0.661378 0.560584 2.11898 0.00755997 122 4 1 6.26924e-07 
-0.232596 -0.462666 -1.98073 0.0025 0.665528 0.565515 2.12429 0.00751283 123 4 1 6.51389e-07 
-0.228852 -0.455831 -2.01312 0.0025 0.669723 0.570512 2.12963 0.00746578 124 4 1 6.7622e-07 
-0.225131 -0.448923 -2.05013 0.0025 0.673975 0.575589 2.13503 0.00741868 125 4 1 6.79796e-07 
-0.221433 -0.441937 -2.07806 0.0025 0.678281 0.580743 2.14048 0.00737158 126 4 1 6.58448e-07 
-0.217759 -0.434953 -2.08919 0.0025 0.682619 0.58595 2.14594 0.00732473 127 4 1 6.53854e-07 
-0.214108 -0.427965 -2.1113 0.0025 0.686985 0.591203 2.15142 0.00727818 128 4 1 6.75221e-07 
-0.210481 -0.420948 -2.14356 0.0025 0.69139 0.596518 2.15693 0.0072318 129 4 1 6.60105e-07 
-0.206876 -0.413897 -2.15058 0.0025 0.695823 0.601877 2.16245 0.00718573 130 4 1 6.25025e-07 
-0.203295 -0.406913 -2.1502 0.0025 0.700258 0.607255 2.16795 0.00714023 131 4 1 6.34905e-07 
-0.199736 -0.399936 -2.17312 0.0025 0.704703 0.612658 2.17345 0.00709519 132 4 1 6.26433e-07 
-0.1962 -0.392963 -2.17223 0.0025 0.709156 0.618084 2.17893 0.00705063 133 4 1 5.97658e-07 
-0.192685 -0.386071 -2.171 0.0025 0.7136 0.623512 2.18438 0.00700673 134 4 1 5.91262e-07 
-0.189193 -0.379209 -2.17238 0.0025 0.718034 0.628944 2.1898 0.00696346 135 4 1 5.89776e-07 
-0.185722 -0.372399 -2.17811 0.0025 0.722465 0.634384 2.19519 0.00692075 136 4 1 5.91096e-07 
-0.182272 -0.365617 -2.18686 0.0025 0.726897 0.639839 2.20057 0.00687855 137 4 1 5.81342e-07 
-0.178843 -0.358859 -2.18893 0.0025 0.731328 0.645305 2.20593 0.00683688 138 4 1 5.62654e-07 
-0.175435 -0.352156 -2.18555 0.0025 0.735748 0.650772 2.21125 0.0067958 139 4 1 5.49691e-07 
-0.172047 -0.345511 -2.18225 0.0025 0.740154 0.656235 2.21654 0.00675535 140 4 1 5.50344e-07 
-0.16868 -0.338906 -2.18796 0.0025 0.744553 0.661701 2.2218 0.00671544 141 4 1 5.63336e-07 
-0.165332 -0.332331 -2.20451 0.0025 0.748958 0.667188 2.22704 0.00667594 142 4 1 5.43242e-07 
-0.162004 -0.325762 -2.19564 0.0025 0.753359 0.672682 2.23227 0.00663694 143 4 1 5.0983e-07 
-0.158695 -0.31929 -2.18315 0.0025 0.757735 0.678159 2.23745 0.00659861 144 4 1 5.08738e-07 
-0.155405 -0.312884 -2.18194 0.0025 0.762093 0.683627 2.24258 0.00656088 145 4 1 5.53819e-07 
-0.152134 -0.306447 -2.22416 0.0025 0.766472 0.689132 2.24773 0.0065234 146 4 1 5.39981e-07 
-0.148882 -0.300019 -2.21249 0.0025 0.770864 0.694665 2.25287 0.00648623 147 4 1 4.85013e-07 
-0.145648 -0.293676 -2.1978 0.0025 0.775229 0.700178 2.25797 0.00644971 148 4 1 4.81377e-07 
-0.142432 -0.287404 -2.19281 0.0025 0.77957 0.705674 2.26301 0.00641379 149 4 1 4.97907e-07 
-0.139234 -0.281168 -2.20542 0.0025 0.783909 0.711179 2.26804 0.0063783 150 4 1 5.25294e-07 
-0.136053 -0.274902 -2.2344 0.0025 0.788268 0.716721 2.27308 0.00634302 151 4 1 4.88767e-07 
-0.132891 -0.268667 -2.21126 0.0025 0.792623 0.722269 2.27809 0.00630817 152 4 1 4.4971e-07 
-0.129745 -0.262532 -2.20161 0.0025 0.796945 0.727789 2.28305 0.00627396 153 4 1 4.58834e-07 
-0.126617 -0.256439 -2.19952 0.0025 0.80125 0.7333 2.28798 0.00624025 154 4 1 4.7988e-07 
-0.123505 -0.250368 -2.21985 0.0025 0.80556 0.73883 2.29289 0.00620686 155 4 1 5.00922e-07 
-0.12041 -0.244274 -2.24346 0.0025 0.809895 0.744401 2.29782 0.00617364 156 4 1 4.68503e-07 
-0.117331 -0.2382 -2.23012 0.0025 0.814229 0.749982 2.30273 0.00614078 157 4 1 4.27213e-07 
-0.114269 -0.232221 -2.21231 0.0025 0.818533 0.755538 2.30759 0.00610849 158 4 1 4.3229e-07 
-0.111223 -0.226288 -2.21488 0.0025 0.822816 0.761079 2.31241 0.00607669 159 4 1 4.4176e-07 
-0.108192 -0.220403 -2.21626 0.0025 0.827094 0.766625 2.31721 0.00604526 160 4 1 4.69368e-07 
-0.105177 -0.214492 -2.25216 0.0025 0.831391 0.772207 2.32202 0.00601402 161 4 1 4.52025e-07 
-0.102178 -0.208585 -2.23813 0.0025 0.835696 0.777809 2.32683 0.00598303 162 4 1 4.13591e-07 
-0.0991943 -0.202765 -2.23145 0.0025 0.839979 0.783395 2.33159 0.00595253 163 4 1 4.06114e-07 
-0.0962256 -0.196984 -2.21794 0.0025 0.844238 0.788962 2.33631 0.0059225 164 4 1 4.04104e-07 
-0.0932718 -0.191313 -2.21507 0.0025 0.848481 0.794521 2.341 0.00589289 165 4 1 4.67734e-07 
-0.0903327 -0.185586 -2.27692 0.0025 0.852761 0.800138 2.34571 0.00586331 166 4 1 4.68854e-07 
-0.0874084 -0.179855 -2.27659 0.0025 0.857081 0.805817 2.35046 0.00583375 167 4 1 4.33473e-07 
-0.0844989 -0.174185 -2.28989 0.0025 0.861407 0.811516 2.3552 0.00580446 168 4 1 4.04141e-07 
-0.0816039 -0.168626 -2.25949 0.0025 0.865717 0.817206 2.3599 0.00577556 169 4 1 3.91797e-07 
-0.0787233 -0.163267 -2.25911 0.0025 0.870008 0.822885 2.36457 0.00574708 170 4 1 4.99654e-07 
-0.0758568 -0.157909 -2.35429 0.0025 0.874369 0.828669 2.36931 0.00571841 171 4 1 5.46836e-07 
-0.0730049 -0.152585 -2.40002 0.0025 0.87884 0.834607 2.37415 0.00568932 172 4 1 5.50998e-07 
-0.0701675 -0.147343 -2.47357 0.0025 0.883407 0.840683 2.37908 0.00565991 173 4 1 5.11258e-07 
-0.0673449 -0.142308 -2.45824 0.0025 0.888028 0.846844 2.38405 0.00563045 174 4 1 4.87441e-07 
-0.064537 -0.13767 -2.48463 0.0025 0.892678 0.853064 2.38903 0.00560112 175 4 1 6.37399e-07 
-0.0617437 -0.133176 -2.63216 0.0025 0.897475 0.859493 2.39415 0.00557118 176 4 1 7.57449e-07 
-0.0589658 -0.128768 -2.77281 0.0025 0.902504 0.866242 2.39951 0.00554014 177 4 1 7.63544e-07 
-0.0562036 -0.124534 -2.8773 0.0025 0.907737 0.87328 2.40507 0.00550821 178 4 1 7.56306e-07 
-0.0534575 -0.120475 -2.97223 0.0025 0.913127 0.880543 2.41077 0.00547569 179 4 1 6.16352e-07 
-0.0507278 -0.116794 -2.8935 0.0025 0.918545 0.887862 2.41648 0.00544339 180 4 1 5.5594e-07 
-0.0480141 -0.113552 -2.90488 0.0025 0.923935 0.895174 2.42214 0.00541163 181 4 1 8.12511e-07 
-0.0453161 -0.110157 -3.14328 0.0025 0.929499 0.902732 2.42797 0.00537924 182 4 1 8.19087e-07 
-0.0426348 -0.106585 -3.1559 0.0025 0.935237 0.910533 2.43396 0.00534624 183 4 1 5.76388e-07 
-0.0399698 -0.103247 -3.0681 0.0025 0.940928 0.9183 2.43987 0.0053139 184 4 1 6.10491e-07 
-0.0373208 -0.0999173 -3.14652 0.0025 0.946581 0.926031 2.44572 0.00528217 185 4 1 5.07958e-07 
-0.0346876 -0.0965269 -3.00464 0.0025 0.952131 0.933626 2.45145 0.00525138 186 4 1 1.40743e-07 
-0.0320694 -0.0934556 -2.68488 0.0025 0.957301 0.940729 2.45676 0.00522302 187 4 1 1.57177e-07 
-0.0294646 -0.0897312 -2.65991 0.0025 0.962113 0.947357 2.4617 0.00519689 188 4 1 2.57514e-08 
-0.0268725 -0.0843113 -2.2911 0.0025 0.966493 0.953384 2.4662 0.00517334 189 4 1 -6.89154e-07 
-0.0242912 -0.0776755 -1.42179 0.0025 0.969932 0.958142 2.4697 0.005155 190 4 1 -5.27864e-07 
-0.0217175 -0.0716317 -1.41347 0.0025 0.972681 0.96198 2.47246 0.00514043 191 4 1 5.86234e-07 
-0.0191508 -0.0660793 -2.19116 0.0025 0.975713 0.966141 2.47556 0.00512446 192 4 1 -3.85297e-07 
-0.016593 -0.059224 -0.798513 0.0025 0.97808 0.969366 2.47802 0.00511206 193 4 1 -2.18772e-06 
-0.0140387 -0.0490672 1.12592 0.0025 0.978152 0.96954 2.47808 0.00511168 194 3 1 -8.27315e-07 
-0.0114813 -0.0386538 0.309164 0.0025 0.977495 0.96874 2.47731 0.00511512 195 5 1 2.32516e-06 
-0.00892359 -0.0312781 -2.44373 0.0025 0.979099 0.970896 2.47896 0.00510674 196 4 1 1.00274e-06 
-0.00637455 -0.0241224 -1.06237 0.0025 0.981479 0.974073 2.4815 0.00509435 197 3 1 -2.77266e-06 
-0.00382923 -0.0135151 1.8032 0.0025 0.981047 0.973538 2.48106 0.0050966 198 4 1 -1.68957e-06 
-0.00127795 -0.00368201 1.37504 0.0025 0.979014 0.97084 2.47887 0.00510718 199 4 1 2.15575e-06 
0.00127795 0.00368201 -1.37504 0.0025 0.979014 0.97084 2.47887 0.00510718 200 4 1 2.15575e-06 
0.00382923 0.0135151 -1.8032 0.0025 0.981047 0.973538 2.48106 0.0050966 201 4 1 -1.68957e-06 
0.00637455 0.0241224 1.06237 0.0025 0.981479 0.974073 2.4815 0.00509435 202 3 1 -2.77266e-06 
0.00892359 0.0312781 2.44373 0.0025 0.979099 0.970896 2.47896 0.00510674 203 4 1 1.00274e-06 
0.0114813 0.0386538 -0.309164 0.0025 0.977495 0.96874 2.47731 0.00511512 204 5 1 2.32516e-06 
0.0140387 0.0490672 -1.12592 0.0025 0.978152 0.96954 2.47808 0.00511168 205 3 1 -8.27315e-07 
0.016593 0.059224 0.798513 0.0025 0.97808 0.969366 2.47802 0.00511206 206 4 1 -2.18772e-06 
0.0191508 0.0660793 2.19116 0.0025 0.975713 0.966141 2.47556 0.00512446 207 4 1 -3.85297e-07 
0.0217175 0.0716317 1.41347 0.0025 0.972681 0.96198 2.47246 0.00514043 208 4 1 5.86234e-07 
0.0242912 0.0776755 1.42179 0.0025 0.969932 0.958142 2.4697 0.005155 209 4 1 -5.27864e-07 
0.0268725 0.0843113 2.2911 0.0025 0.966493 0.953384 2.4662 0.00517334 210 4 1 -6.89154e-07 
