# Time [s]: 0.421992
# Columns: pos [m], vel [m/s], acc [m/s^2], mass [kg], dens [kg/m^3], pres [Pa], ene [J/kg], sml [m], id, neighbor, alpha, gradh, ...additional?
1.21819 -0.673077 3.57496e-05 0.0025 0.511059 0.432736 2.15252 0.00978361 0 4 1 -0.000134225 
1.22297 -0.673077 3.76671e-05 0.0025 0.536917 0.426199 1.95005 0.00931243 1 4 1 0.000179254 
1.22751 -0.673078 3.91065e-05 0.0025 0.548247 0.43087 1.96851 0.00911997 2 3 1 -1.90585e-05 
1.23209 -0.673078 4.01162e-05 0.0025 0.545982 0.429205 1.96466 0.0091578 3 5 1 3.48562e-06 
1.23666 -0.673079 4.09853e-05 0.0025 0.546381 0.429361 1.96459 0.00915113 4 4 1 -1.3868e-07 
1.24124 -0.67308 4.22774e-05 0.0025 0.546392 0.429331 1.96436 0.00915094 5 4 1 1.43737e-07 
1.24581 -0.67308 4.45047e-05 0.0025 0.546415 0.42933 1.96431 0.00915055 6 4 1 -3.50432e-09 
1.25039 -0.673081 4.78077e-05 0.0025 0.546429 0.429328 1.96424 0.00915032 7 4 1 8.24118e-09 
1.25496 -0.673082 5.17663e-05 0.0025 0.546443 0.429328 1.96419 0.00915008 8 4 1 4.77052e-09 
1.25954 -0.673083 5.54117e-05 0.0025 0.546456 0.429327 1.96414 0.00914987 9 4 1 5.48496e-09 
1.26411 -0.673084 5.7382e-05 0.0025 0.546467 0.429327 1.9641 0.00914968 10 4 1 -2.22492e-09 
1.26869 -0.673085 5.60503e-05 0.0025 0.546479 0.429327 1.96406 0.00914949 11 4 1 4.75322e-09 
1.27326 -0.673086 4.9473e-05 0.0025 0.546489 0.429327 1.96402 0.00914931 12 4 1 2.89087e-09 
1.27784 -0.673087 3.51548e-05 0.0025 0.546498 0.429327 1.96399 0.00914916 13 4 1 3.63445e-09 
1.28241 -0.673088 9.85446e-06 0.0025 0.546506 0.429326 1.96396 0.00914902 14 4 1 2.21504e-09 
1.28699 -0.67309 -3.01801e-05 0.0025 0.546514 0.429326 1.96393 0.00914889 15 4 1 -1.44314e-09 
1.29156 -0.673092 -8.82018e-05 0.0025 0.546522 0.429326 1.9639 0.00914877 16 4 1 5.09278e-09 
1.29614 -0.673094 -0.000165171 0.0025 0.546529 0.429327 1.96388 0.00914865 17 4 1 1.72493e-09 
1.30071 -0.673097 -0.000257694 0.0025 0.546535 0.429327 1.96386 0.00914855 18 4 1 -9.08068e-10 
1.30528 -0.6731 -0.000356669 0.0025 0.546541 0.429328 1.96384 0.00914844 19 4 1 3.00348e-09 
1.30986 -0.673104 -0.000447624 0.0025 0.546548 0.429329 1.96382 0.00914833 20 4 1 1.45383e-09 
1.31443 -0.673108 -0.000513221 0.0025 0.546554 0.42933 1.9638 0.00914823 21 4 1 1.41297e-09 
1.31901 -0.673113 -0.000537375 0.0025 0.546559 0.429331 1.96379 0.00914814 22 4 1 1.17607e-09 
1.32358 -0.673118 -0.00050964 0.0025 0.546564 0.429332 1.96378 0.00914805 23 4 1 -1.80901e-10 
1.32816 -0.673123 -0.000428199 0.0025 0.54657 0.429333 1.96376 0.00914797 24 4 1 1.33766e-09 
1.33273 -0.673127 -0.000300354 0.0025 0.546574 0.429334 1.96375 0.00914789 25 4 1 4.84577e-10 
1.3373 -0.673132 -0.00014043 0.0025 0.546578 0.429335 1.96374 0.00914782 26 4 1 -6.89135e-10 
1.34188 -0.673135 3.40224e-05 0.0025 0.546582 0.429335 1.96373 0.00914776 27 4 1 8.6196e-10 
1.34645 -0.673139 0.000206332 0.0025 0.546585 0.429335 1.96372 0.00914771 28 4 1 5.11658e-10 
1.35102 -0.673141 0.000363849 0.0025 0.546587 0.429334 1.96371 0.00914768 29 4 1 -1.08553e-09 
1.3556 -0.673144 0.000499375 0.0025 0.546589 0.429333 1.96369 0.00914764 30 4 1 2.37553e-10 
1.36017 -0.673146 0.000610869 0.0025 0.54659 0.429332 1.96368 0.00914762 31 4 1 1.75232e-09 
1.36475 -0.673148 0.000700029 0.0025 0.546591 0.42933 1.96367 0.00914761 32 4 1 -1.0233e-09 
1.36932 -0.67315 0.000770662 0.0025 0.546592 0.429329 1.96366 0.0091476 33 4 1 -9.53647e-10 
1.37389 -0.673152 0.000827488 0.0025 0.546592 0.429327 1.96365 0.00914759 34 3 1 2.02252e-09 
1.37847 -0.673154 0.000875481 0.0025 0.546592 0.429324 1.96364 0.00914759 35 4 1 -2.81589e-10 
1.38304 -0.673156 0.000919344 0.0025 0.546592 0.429322 1.96363 0.00914759 36 4 1 -9.36462e-10 
1.38761 -0.673158 0.000962783 0.0025 0.546592 0.42932 1.96362 0.0091476 37 4 1 1.37799e-09 
1.39219 -0.673161 0.00100782 0.0025 0.546591 0.429317 1.96361 0.00914761 38 4 1 5.21098e-11 
1.39676 -0.673164 0.0010548 0.0025 0.54659 0.429314 1.9636 0.00914762 39 4 1 -7.68112e-10 
1.40134 -0.673167 0.00110338 0.0025 0.546589 0.429312 1.96359 0.00914764 40 4 1 6.79316e-10 
1.40591 -0.673171 0.00115387 0.0025 0.546588 0.429309 1.96358 0.00914766 41 4 1 4.09475e-10 
1.41048 -0.673175 0.00120765 0.0025 0.546587 0.429306 1.96358 0.00914768 42 4 1 -6.61012e-10 
1.41506 -0.67318 0.00126632 0.0025 0.546585 0.429302 1.96357 0.00914771 43 4 1 -4.85725e-11 
1.41963 -0.673185 0.00133073 0.0025 0.546583 0.429299 1.96356 0.00914773 44 4 1 9.1402e-10 
1.42421 -0.673191 0.00140182 0.0025 0.546581 0.429295 1.96355 0.00914777 45 4 1 -4.39753e-10 
1.42878 -0.673197 0.00148322 0.0025 0.546579 0.429292 1.96354 0.00914781 46 4 1 -8.19651e-10 
1.43335 -0.673203 0.00158269 0.0025 0.546577 0.429288 1.96353 0.00914785 47 4 1 4.41441e-10 
1.43793 -0.673211 0.001709 0.0025 0.546574 0.429283 1.96352 0.0091479 48 4 1 5.62688e-11 
1.4425 -0.673219 0.00186496 0.0025 0.54657 0.429279 1.96351 0.00914795 49 4 1 -9.02622e-10 
1.44708 -0.673227 0.00204253 0.0025 0.546567 0.429274 1.9635 0.00914801 50 4 1 -6.4038e-10 
1.45165 -0.673236 0.00222664 0.0025 0.546563 0.429268 1.96349 0.00914808 51 4 1 2.77385e-10 
1.45622 -0.673246 0.00240724 0.0025 0.546558 0.429262 1.96348 0.00914816 52 4 1 -4.48888e-10 
1.4608 -0.673256 0.00259058 0.0025 0.546553 0.429256 1.96347 0.00914824 53 4 1 -1.21975e-09 
1.46537 -0.673268 0.00279883 0.0025 0.546548 0.429249 1.96345 0.00914833 54 4 1 -4.48024e-10 
1.46995 -0.67328 0.00305605 0.0025 0.546542 0.429241 1.96344 0.00914843 55 4 1 3.17937e-11 
1.47452 -0.673294 0.00337018 0.0025 0.546535 0.429233 1.96343 0.00914855 56 4 1 -1.13738e-09 
1.47909 -0.673308 0.00372535 0.0025 0.546527 0.429223 1.96341 0.00914868 57 4 1 -1.63353e-09 
1.48367 -0.673324 0.00409219 0.0025 0.546519 0.429213 1.9634 0.00914882 58 4 1 -4.56704e-10 
1.48824 -0.673341 0.00445058 0.0025 0.546509 0.429202 1.96338 0.00914897 59 4 1 -7.45952e-10 
1.49282 -0.673361 0.00480935 0.0025 0.546499 0.42919 1.96336 0.00914915 60 4 1 -1.49436e-09 
1.49739 -0.673382 0.00520688 0.0025 0.546488 0.429177 1.96334 0.00914934 61 4 1 -1.44023e-09 
-0.498033 -0.673406 0.00568983 0.0025 0.546475 0.429162 1.96332 0.00914954 62 4 1 -1.03359e-09 
-0.493458 -0.673432 0.00628658 0.0025 0.546462 0.429146 1.9633 0.00914978 63 4 1 -1.69389e-09 
-0.488883 -0.673462 0.00699899 0.0025 0.546446 0.429129 1.96327 0.00915003 64 4 1 -2.44943e-09 
-0.484308 -0.673494 0.00781613 0.0025 0.546429 0.429109 1.96324 0.00915032 65 4 1 -2.35937e-09 
-0.479733 -0.67353 0.00872705 0.0025 0.54641 0.429087 1.96321 0.00915064 66 4 1 -2.54741e-09 
-0.475157 -0.67357 0.00971813 0.0025 0.546388 0.429063 1.96318 0.009151 67 4 1 -3.02761e-09 
-0.470582 -0.673614 0.0107756 0.0025 0.546364 0.429036 1.96314 0.00915141 68 4 1 -3.30629e-09 
-0.466006 -0.673664 0.0119124 0.0025 0.546337 0.429006 1.9631 0.00915186 69 4 1 -3.28054e-09 
-0.46143 -0.673721 0.0131909 0.0025 0.546307 0.428972 1.96305 0.00915236 70 4 1 -3.86849e-09 
-0.456854 -0.673784 0.0147001 0.0025 0.546274 0.428935 1.963 0.00915291 71 4 1 -4.63465e-09 
-0.452277 -0.673855 0.0164949 0.0025 0.546237 0.428894 1.96295 0.00915353 72 4 1 -5.00832e-09 
-0.4477 -0.673933 0.0185287 0.0025 0.546196 0.428848 1.96289 0.00915422 73 4 1 -5.44995e-09 
-0.443123 -0.674018 0.0206263 0.0025 0.54615 0.428797 1.96282 0.009155 74 4 1 -5.59214e-09 
-0.438545 -0.674112 0.0225742 0.0025 0.546099 0.428741 1.96274 0.00915585 75 4 1 -4.99671e-09 
-0.433967 -0.674214 0.0242836 0.0025 0.546044 0.42868 1.96266 0.00915677 76 4 1 -4.07883e-09 
-0.429388 -0.674326 0.0258291 0.0025 0.545985 0.428615 1.96257 0.00915776 77 4 1 -3.26984e-09 
-0.424809 -0.674447 0.0273287 0.0025 0.545923 0.428546 1.96248 0.00915879 78 4 1 -2.62253e-09 
-0.42023 -0.674573 0.0287441 0.0025 0.545859 0.428476 1.96239 0.00915987 79 4 1 -1.56641e-09 
-0.415649 -0.6747 0.0296783 0.0025 0.545794 0.428403 1.96229 0.00916097 80 4 1 5.58849e-10 
-0.411069 -0.674825 0.0295606 0.0025 0.545729 0.428331 1.9622 0.00916206 81 4 1 3.88745e-09 
-0.406487 -0.674945 0.028001 0.0025 0.545666 0.428263 1.96211 0.00916311 82 4 1 8.1968e-09 
-0.401905 -0.675055 0.0246776 0.0025 0.545611 0.428201 1.96203 0.00916404 83 4 1 1.30892e-08 
-0.397323 -0.675151 0.0196401 0.0025 0.545566 0.428152 1.96196 0.0091648 84 4 1 1.65775e-08 
-0.392741 -0.675226 0.0149127 0.0025 0.545535 0.428117 1.96191 0.00916532 85 4 1 1.73045e-08 
-0.388158 -0.675266 0.00916812 0.0025 0.545518 0.428099 1.96189 0.0091656 86 5 1 2.49518e-08 
-0.383575 -0.675272 -0.00460584 0.0025 0.545522 0.428103 1.96189 0.00916554 87 4 1 3.36821e-08 
-0.378992 -0.675227 -0.0106669 0.0025 0.545554 0.428141 1.96194 0.00916499 88 4 1 9.52301e-08 
-0.37441 -0.675073 -0.0640969 0.0025 0.545667 0.428271 1.9621 0.00916309 89 4 1 2.479e-07 
-0.369829 -0.674515 -0.192364 0.0025 0.545981 0.428619 1.96255 0.00915783 90 4 1 3.69249e-07 
-0.365252 -0.673357 -0.330227 0.0025 0.546584 0.429283 1.96341 0.00914772 91 4 1 4.07865e-07 
-0.360682 -0.671639 -0.454205 0.0025 0.547493 0.430285 1.96472 0.00913254 92 4 1 5.14545e-07 
-0.35612 -0.669291 -0.636494 0.0025 0.548762 0.431689 1.96654 0.00911141 93 4 1 7.46552e-07 
-0.35157 -0.665964 -0.897369 0.0025 0.55052 0.433629 1.96905 0.00908232 94 4 1 9.39255e-07 
-0.347037 -0.661531 -1.15817 0.0025 0.552836 0.436183 1.97236 0.00904428 95 4 1 9.84909e-07 
-0.342526 -0.656112 -1.36393 0.0025 0.555652 0.439291 1.97638 0.00899843 96 4 1 9.05104e-07 
-0.338039 -0.650036 -1.48345 0.0025 0.558831 0.442807 1.98089 0.00894725 97 4 1 8.08181e-07 
-0.333578 -0.643585 -1.56035 0.0025 0.562241 0.446593 1.98572 0.00889298 98 4 1 7.99937e-07 
-0.329146 -0.636883 -1.63979 0.0025 0.565833 0.450592 1.99078 0.00883653 99 4 1 8.5934e-07 
-0.324742 -0.629862 -1.7301 0.0025 0.56961 0.45481 1.99609 0.00877793 100 4 1 9.41235e-07 
-0.320368 -0.622501 -1.83289 0.0025 0.573589 0.459264 2.00165 0.00871704 101 4 1 1.00789e-06 
-0.316025 -0.614784 -1.93174 0.0025 0.577773 0.463959 2.00748 0.00865392 102 4 1 1.02445e-06 
-0.311714 -0.606777 -2.00823 0.0025 0.582132 0.468866 2.01353 0.00858911 103 4 1 9.95425e-07 
-0.307435 -0.598593 -2.0572 0.0025 0.586616 0.473927 2.01972 0.00852346 104 4 1 9.41403e-07 
-0.30319 -0.590351 -2.08077 0.0025 0.591167 0.47908 2.02597 0.00845784 105 4 1 8.78138e-07 
-0.298977 -0.582113 -2.08471 0.0025 0.595737 0.484271 2.03222 0.00839296 106 4 1 8.04144e-07 
-0.294797 -0.573992 -2.06512 0.0025 0.600282 0.489449 2.03841 0.00832942 107 4 1 7.46364e-07 
-0.290648 -0.566014 -2.04416 0.0025 0.604774 0.494585 2.04449 0.00826755 108 4 1 7.22934e-07 
-0.286529 -0.55819 -2.03002 0.0025 0.609217 0.499679 2.05049 0.00820726 109 4 1 7.04429e-07 
-0.282441 -0.550474 -2.01606 0.0025 0.613614 0.504734 2.0564 0.00814844 110 4 1 6.69997e-07 
-0.278381 -0.542893 -1.99307 0.0025 0.617959 0.509745 2.06221 0.00809115 111 4 1 6.39438e-07 
-0.274349 -0.535458 -1.97269 0.0025 0.622249 0.514706 2.06792 0.00803537 112 4 1 6.33257e-07 
-0.270345 -0.528152 -1.96371 0.0025 0.626494 0.519629 2.07355 0.00798092 113 4 1 6.2321e-07 
-0.266368 -0.520915 -1.95145 0.0025 0.630703 0.524522 2.07911 0.00792766 114 4 1 5.93892e-07 
-0.262418 -0.513822 -1.93077 0.0025 0.634869 0.529379 2.08459 0.00787565 115 4 1 5.94813e-07 
-0.258493 -0.50681 -1.93259 0.0025 0.639004 0.534213 2.09001 0.00782468 116 4 1 6.03832e-07 
-0.254593 -0.499846 -1.93181 0.0025 0.643125 0.539042 2.0954 0.00777454 117 4 1 5.76489e-07 
-0.250718 -0.492974 -1.91575 0.0025 0.647222 0.543857 2.10072 0.00772532 118 4 1 5.8593e-07 
-0.246867 -0.486162 -1.92934 0.0025 0.65131 0.548673 2.10602 0.00767684 119 4 1 6.19798e-07 
-0.243041 -0.479329 -1.9488 0.0025 0.655417 0.553523 2.11132 0.00762873 120 4 1 6.21658e-07 
-0.239239 -0.4725 -1.96139 0.0025 0.659546 0.558411 2.11663 0.00758097 121 4 1 6.20736e-07 
-0.23546 -0.465664 -1.9759 0.0025 0.663697 0.563338 2.12195 0.00753356 122 4 1 6.42243e-07 
-0.231705 -0.458811 -2.00454 0.0025 0.667884 0.568321 2.12729 0.00748633 123 4 1 6.76996e-07 
-0.227974 -0.451905 -2.04514 0.0025 0.672129 0.573384 2.13269 0.00743905 124 4 1 6.93661e-07 
-0.224266 -0.444925 -2.08051 0.0025 0.676436 0.578534 2.13815 0.00739168 125 4 1 6.70315e-07 
-0.220582 -0.437903 -2.09172 0.0025 0.680783 0.583744 2.14363 0.00734449 126 4 1 6.56125e-07 
-0.216921 -0.430891 -2.11034 0.0025 0.685155 0.588999 2.14913 0.00729762 127 4 1 6.73215e-07 
-0.213284 -0.423854 -2.1391 0.0025 0.689562 0.594311 2.15465 0.00725098 128 4 1 6.80641e-07 
-0.20967 -0.416778 -2.16424 0.0025 0.694009 0.599681 2.16019 0.00720452 129 4 1 6.41135e-07 
-0.20608 -0.409733 -2.15498 0.0025 0.698464 0.605078 2.16573 0.00715856 130 4 1 6.31427e-07 
-0.202512 -0.40273 -2.1745 0.0025 0.702922 0.610492 2.17125 0.00711316 131 4 1 6.45553e-07 
-0.198966 -0.395715 -2.18775 0.0025 0.707397 0.615938 2.17677 0.00706817 132 4 1 6.08062e-07 
-0.195443 -0.388758 -2.17567 0.0025 0.711864 0.621391 2.18225 0.00702381 133 4 1 5.98109e-07 
-0.191942 -0.381856 -2.18545 0.0025 0.716321 0.626844 2.18771 0.00698011 134 4 1 5.97854e-07 
-0.188463 -0.374996 -2.18306 0.0025 0.720774 0.632306 2.19314 0.00693699 135 4 1 5.92649e-07 
-0.185005 -0.36817 -2.19353 0.0025 0.725224 0.637778 2.19854 0.00689443 136 4 1 5.95743e-07 
-0.181569 -0.361371 -2.20116 0.0025 0.729678 0.643268 2.20393 0.00685234 137 4 1 5.74251e-07 
-0.178153 -0.354617 -2.19596 0.0025 0.734124 0.648761 2.2093 0.00681084 138 4 1 5.56057e-07 
-0.174758 -0.347921 -2.19263 0.0025 0.738554 0.654249 2.21462 0.00676998 139 4 1 5.56222e-07 
-0.171383 -0.341276 -2.19632 0.0025 0.742975 0.659739 2.21991 0.0067297 140 4 1 5.61071e-07 
-0.168028 -0.334656 -2.20547 0.0025 0.747396 0.665242 2.22519 0.00668989 141 4 1 5.62944e-07 
-0.164693 -0.32805 -2.21714 0.0025 0.751822 0.670762 2.23045 0.00665051 142 4 1 5.23412e-07 
-0.161377 -0.321519 -2.19118 0.0025 0.756228 0.676272 2.23567 0.00661176 143 4 1 5.05069e-07 
-0.158081 -0.31506 -2.19097 0.0025 0.760607 0.681762 2.24083 0.0065737 144 4 1 5.5123e-07 
-0.154804 -0.308623 -2.22286 0.0025 0.765 0.687281 2.246 0.00653595 145 4 1 5.53074e-07 
-0.151545 -0.302134 -2.22909 0.0025 0.769412 0.692834 2.25117 0.00649847 146 4 1 5.02997e-07 
-0.148305 -0.295741 -2.20993 0.0025 0.773805 0.698379 2.25631 0.00646157 147 4 1 4.82881e-07 
-0.145083 -0.28942 -2.20237 0.0025 0.778171 0.703901 2.26139 0.00642533 148 4 1 4.97487e-07 
-0.14188 -0.283146 -2.21015 0.0025 0.782527 0.709426 2.26644 0.00638955 149 4 1 5.26806e-07 
-0.138694 -0.276867 -2.23942 0.0025 0.786902 0.714984 2.2715 0.00635403 150 4 1 5.09704e-07 
-0.135526 -0.270577 -2.23239 0.0025 0.791283 0.720561 2.27655 0.00631885 151 4 1 4.57546e-07 
-0.132375 -0.264394 -2.20859 0.0025 0.795634 0.726114 2.28155 0.0062843 152 4 1 4.58177e-07 
-0.129241 -0.258262 -2.21167 0.0025 0.799961 0.731649 2.28651 0.00625031 153 4 1 4.80902e-07 
-0.126125 -0.252164 -2.22236 0.0025 0.804289 0.737198 2.29145 0.00621667 154 4 1 5.00254e-07 
-0.123025 -0.246044 -2.2492 0.0025 0.808637 0.742783 2.29639 0.00618324 155 4 1 4.86295e-07 
-0.119941 -0.239926 -2.24705 0.0025 0.812995 0.748391 2.30134 0.0061501 156 4 1 4.3683e-07 
-0.116875 -0.233894 -2.22282 0.0025 0.817326 0.753978 2.30623 0.00611751 157 4 1 4.32483e-07 
-0.113824 -0.227929 -2.22432 0.0025 0.82163 0.759544 2.31108 0.00608546 158 4 1 4.43425e-07 
-0.110789 -0.221996 -2.22291 0.0025 0.825927 0.765111 2.31591 0.0060538 159 4 1 4.68651e-07 
-0.10777 -0.216076 -2.25594 0.0025 0.830239 0.770709 2.32074 0.00602236 160 4 1 4.67145e-07 
-0.104767 -0.210125 -2.25623 0.0025 0.834566 0.776338 2.32557 0.00599114 161 4 1 4.18596e-07 
-0.101779 -0.204259 -2.23651 0.0025 0.838872 0.78195 2.33036 0.00596039 162 4 1 4.10023e-07 
-0.0988062 -0.198442 -2.23381 0.0025 0.843152 0.787541 2.33511 0.00593013 163 4 1 3.99171e-07 
-0.0958486 -0.192705 -2.21169 0.0025 0.847408 0.793114 2.33981 0.00590035 164 4 1 4.53494e-07 
-0.0929058 -0.186971 -2.27329 0.0025 0.851687 0.798728 2.34453 0.0058707 165 4 1 4.76554e-07 
-0.0899779 -0.181171 -2.28197 0.0025 0.85601 0.804408 2.34929 0.00584105 166 4 1 4.2908e-07 
-0.0870647 -0.175444 -2.28334 0.0025 0.860335 0.810102 2.35403 0.00581169 167 4 1 3.95178e-07 
-0.0841661 -0.169782 -2.25585 0.0025 0.864634 0.815774 2.35872 0.00578279 168 4 1 3.64763e-07 
-0.0812819 -0.164294 -2.22901 0.0025 0.868893 0.821408 2.36336 0.00575445 169 4 1 4.56614e-07 
-0.0784116 -0.158848 -2.31092 0.0025 0.87319 0.827103 2.36803 0.00572613 170 4 1 5.16471e-07 
-0.0755557 -0.153351 -2.35365 0.0025 0.877578 0.832928 2.37278 0.0056975 171 4 1 5.06919e-07 
-0.0727141 -0.147935 -2.40515 0.0025 0.882038 0.838858 2.3776 0.00566869 172 4 1 4.65181e-07 
-0.069887 -0.14263 -2.38711 0.0025 0.886527 0.844838 2.38243 0.00563999 173 4 1 4.07516e-07 
-0.0670741 -0.13766 -2.36212 0.0025 0.890999 0.850815 2.38723 0.00561168 174 4 1 5.44845e-07 
-0.0642753 -0.132855 -2.49879 0.0025 0.895566 0.856933 2.39212 0.00558306 175 4 1 6.86257e-07 
-0.061491 -0.128087 -2.62437 0.0025 0.900342 0.863337 2.39721 0.00555345 176 4 1 6.97349e-07 
-0.0587218 -0.123445 -2.72933 0.0025 0.905309 0.870012 2.40249 0.00552298 177 4 1 7.0729e-07 
-0.055968 -0.119004 -2.82699 0.0025 0.910439 0.876917 2.40793 0.00549186 178 4 1 5.96954e-07 
-0.0532299 -0.1149 -2.77682 0.0025 0.915624 0.883914 2.41341 0.00546076 179 4 1 5.49051e-07 
-0.0505072 -0.111318 -2.79997 0.0025 0.92082 0.890952 2.41887 0.00542994 180 4 1 8.22279e-07 
-0.0477999 -0.107774 -3.07039 0.0025 0.926233 0.898297 2.42455 0.00539821 181 4 1 8.73264e-07 
-0.0451089 -0.104049 -3.13356 0.0025 0.931889 0.905976 2.43047 0.00536544 182 4 1 6.27923e-07 
-0.0424344 -0.100584 -3.06181 0.0025 0.937558 0.9137 2.43637 0.005333 183 4 1 6.46882e-07 
-0.0397759 -0.0972369 -3.15018 0.0025 0.943226 0.921443 2.44225 0.00530096 184 4 1 5.988e-07 
-0.0371334 -0.0938692 -3.0596 0.0025 0.948865 0.929153 2.44809 0.00526946 185 4 1 3.29266e-07 
-0.0345064 -0.090915 -2.83457 0.0025 0.954283 0.936595 2.45366 0.00523954 186 4 1 5.90103e-07 
-0.0318938 -0.0878846 -3.11041 0.0025 0.959699 0.944056 2.45922 0.00520997 187 4 1 7.91904e-07 
-0.0292963 -0.0839404 -3.22373 0.0025 0.965274 0.951718 2.46494 0.00517988 188 4 1 6.07427e-09 
-0.0267139 -0.0795191 -2.55825 0.0025 0.970347 0.958692 2.47013 0.0051528 189 4 1 -8.63768e-07 
-0.0241435 -0.0749183 -1.60842 0.0025 0.974201 0.964043 2.47403 0.00513241 190 4 1 -5.2848e-07 
-0.0215814 -0.0689032 -1.54913 0.0025 0.977235 0.968289 2.47711 0.00511648 191 4 1 1.7904e-07 
-0.019027 -0.0619839 -1.81247 0.0025 0.980258 0.972484 2.48016 0.0051007 192 4 1 2.60182e-07 
-0.0164807 -0.0563745 -1.87291 0.0025 0.983306 0.976657 2.48326 0.00508489 193 4 1 -9.72658e-07 
-0.0139421 -0.0502062 -0.280372 0.0025 0.985138 0.979191 2.48514 0.00507543 194 4 1 -1.63213e-06 
-0.0114053 -0.0400361 0.649842 0.0025 0.985192 0.979365 2.48519 0.00507515 195 4 1 -3.00757e-08 
-0.00886697 -0.02804 -0.46456 0.0025 0.985296 0.979559 2.48525 0.00507461 196 4 1 1.39924e-06 
-0.00633069 -0.0209948 -1.60636 0.0025 0.986773 0.9815 2.48675 0.00506702 197 4 1 -5.21498e-07 
-0.00379994 -0.0162349 0.474752 0.0025 0.987584 0.98259 2.48762 0.00506286 198 3 1 -1.71376e-06 
-0.00126783 -0.00668163 1.12012 0.0025 0.986628 0.981414 2.48664 0.00506777 199 4 1 9.23816e-07 
0.00126783 0.00668163 -1.12012 0.0025 0.986628 0.981414 2.48664 0.00506777 200 4 1 9.23816e-07 
0.00379994 0.0162349 -0.474752 0.0025 0.987584 0.98259 2.48762 0.00506286 201 3 1 -1.71376e-06 
0.00633069 0.0209948 1.60636 0.0025 0.986773 0.9815 2.48675 0.00506702 202 4 1 -5.21498e-07 
0.00886697 0.02804 0.46456 0.0025 0.985296 0.979559 2.48525 0.00507461 203 4 1 1.39924e-06 
0.0114053 0.0400361 -0.649842 0.0025 0.985192 0.979365 2.48519 0.00507515 204 4 1 -3.00757e-08 
0.0139421 0.0502062 0.280372 0.0025 0.985138 0.979191 2.48514 0.00507543 205 4 1 -1.63213e-06 
0.0164807 0.0563745 1.87291 0.0025 0.983306 0.976657 2.48326 0.00508489 206 4 1 -9.72658e-07 
0.019027 0.0619839 1.81247 0.0025 0.980258 0.972484 2.48016 0.0051007 207 4 1 2.60182e-07 
0.0215814 0.0689032 1.54913 0.0025 0.977235 0.968289 2.47711 0.00511648 208 4 1 1.7904e-07 
0.0241435 0.0749183 1.60842 0.0025 0.974201 0.964043 2.47403 0.00513241 209 4 1 -5.2848e-07 
0.0267139 0.0795191 2.55825 0.0025 0.970347 0.958692 2.47013 0.0051528 210 4 1 -8.63768e-07 
