# Time [s]: 0.422635
# Columns: pos [m], vel [m/s], acc [m/s^2], mass [kg], dens [kg/m^3], pres [Pa], ene [J/kg], sml [m], id, neighbor, alpha, gradh, ...additional?
1.21775 -0.673077 3.46212e-05 0.0025 0.511059 0.432736 2.15252 0.00978361 0 4 1 -0.000134225 
1.22253 -0.673077 3.63977e-05 0.0025 0.536917 0.426199 1.95005 0.00931243 1 4 1 0.000179254 
1.22707 -0.673078 3.76831e-05 0.0025 0.548247 0.43087 1.96851 0.00911997 2 3 1 -1.90585e-05 
1.23165 -0.673078 3.85664e-05 0.0025 0.545982 0.429206 1.96466 0.0091578 3 5 1 3.48562e-06 
1.23623 -0.673079 3.93839e-05 0.0025 0.546381 0.429361 1.96459 0.00915112 4 4 1 -1.3868e-07 
1.24081 -0.673079 4.07032e-05 0.0025 0.546392 0.429331 1.96436 0.00915094 5 4 1 1.43737e-07 
1.24538 -0.67308 4.29887e-05 0.0025 0.546415 0.42933 1.96431 0.00915055 6 4 1 -3.5044e-09 
1.24996 -0.673081 4.62978e-05 0.0025 0.546429 0.429328 1.96424 0.00915032 7 4 1 8.24126e-09 
1.25453 -0.673082 5.01231e-05 0.0025 0.546443 0.429328 1.96419 0.00915008 8 4 1 4.77096e-09 
1.25911 -0.673083 5.3431e-05 0.0025 0.546456 0.429327 1.96414 0.00914987 9 4 1 5.48595e-09 
1.26368 -0.673084 5.48188e-05 0.0025 0.546467 0.429327 1.9641 0.00914968 10 4 1 -2.22326e-09 
1.26826 -0.673084 5.26179e-05 0.0025 0.546479 0.429327 1.96406 0.00914949 11 4 1 4.75568e-09 
1.27283 -0.673086 4.48104e-05 0.0025 0.546489 0.429327 1.96402 0.00914931 12 4 1 2.89434e-09 
1.27741 -0.673087 2.87883e-05 0.0025 0.546498 0.429327 1.96399 0.00914916 13 4 1 3.63921e-09 
1.28198 -0.673088 1.21134e-06 0.0025 0.546507 0.429327 1.96396 0.00914902 14 4 1 2.22126e-09 
1.28655 -0.67309 -4.16478e-05 0.0025 0.546514 0.429327 1.96393 0.00914889 15 4 1 -1.43564e-09 
1.29113 -0.673092 -0.000102766 0.0025 0.546522 0.429327 1.9639 0.00914876 16 4 1 5.10075e-09 
1.2957 -0.673094 -0.000182509 0.0025 0.546529 0.429327 1.96388 0.00914865 17 4 1 1.7318e-09 
1.30028 -0.673097 -0.000276645 0.0025 0.546535 0.429327 1.96386 0.00914854 18 4 1 -9.04405e-10 
1.30485 -0.6731 -0.000375219 0.0025 0.546542 0.429328 1.96384 0.00914843 19 4 1 3.0019e-09 
1.30943 -0.673104 -0.000463223 0.0025 0.546548 0.429329 1.96382 0.00914833 20 4 1 1.4458e-09 
1.314 -0.673108 -0.000523371 0.0025 0.546554 0.42933 1.9638 0.00914823 21 4 1 1.39875e-09 
1.31857 -0.673113 -0.000540313 0.0025 0.546559 0.429331 1.96379 0.00914813 22 4 1 1.15754e-09 
1.32315 -0.673118 -0.000504853 0.0025 0.546565 0.429332 1.96378 0.00914805 23 4 1 -2.00634e-10 
1.32772 -0.673123 -0.000416572 0.0025 0.54657 0.429334 1.96376 0.00914796 24 4 1 1.32017e-09 
1.3323 -0.673127 -0.000283919 0.0025 0.546574 0.429334 1.96375 0.00914788 25 4 1 4.72176e-10 
1.33687 -0.673132 -0.000121818 0.0025 0.546578 0.429335 1.96374 0.00914782 26 4 1 -6.94938e-10 
1.34144 -0.673135 5.22115e-05 0.0025 0.546582 0.429335 1.96373 0.00914776 27 4 1 8.62741e-10 
1.34602 -0.673139 0.000222044 0.0025 0.546585 0.429335 1.96372 0.00914771 28 4 1 5.17748e-10 
1.35059 -0.673141 0.000375834 0.0025 0.546587 0.429335 1.96371 0.00914767 29 4 1 -1.07608e-09 
1.35517 -0.673143 0.00050718 0.0025 0.546589 0.429334 1.96369 0.00914764 30 4 1 2.48397e-10 
1.35974 -0.673146 0.000614632 0.0025 0.54659 0.429332 1.96368 0.00914762 31 4 1 1.76302e-09 
1.36431 -0.673147 0.000700227 0.0025 0.546591 0.429331 1.96367 0.0091476 32 4 1 -1.01368e-09 
1.36889 -0.673149 0.000767908 0.0025 0.546592 0.429329 1.96366 0.00914759 33 4 1 -9.45558e-10 
1.37346 -0.673151 0.000822433 0.0025 0.546592 0.429327 1.96365 0.00914759 34 3 1 2.02893e-09 
1.37803 -0.673153 0.000868741 0.0025 0.546592 0.429325 1.96364 0.00914759 35 4 1 -2.76749e-10 
1.38261 -0.673155 0.000911403 0.0025 0.546592 0.429322 1.96363 0.00914759 36 4 1 -9.3284e-10 
1.38718 -0.673158 0.000953883 0.0025 0.546592 0.42932 1.96362 0.00914759 37 4 1 1.381e-09 
1.39176 -0.67316 0.000997929 0.0025 0.546591 0.429317 1.96361 0.0091476 38 4 1 5.51269e-11 
1.39633 -0.673163 0.00104373 0.0025 0.54659 0.429315 1.9636 0.00914762 39 4 1 -7.64763e-10 
1.4009 -0.673167 0.00109102 0.0025 0.54659 0.429312 1.96359 0.00914763 40 4 1 6.82885e-10 
1.40548 -0.67317 0.00114027 0.0025 0.546588 0.429309 1.96358 0.00914765 41 4 1 4.12962e-10 
1.41005 -0.673175 0.00119293 0.0025 0.546587 0.429306 1.96358 0.00914767 42 4 1 -6.57688e-10 
1.41462 -0.673179 0.00125047 0.0025 0.546586 0.429303 1.96357 0.0091477 43 4 1 -4.52091e-11 
1.4192 -0.673184 0.00131365 0.0025 0.546584 0.429299 1.96356 0.00914773 44 4 1 9.17402e-10 
1.42377 -0.67319 0.00138372 0.0025 0.546582 0.429296 1.96355 0.00914776 45 4 1 -4.37138e-10 
1.42835 -0.673196 0.00146492 0.0025 0.546579 0.429292 1.96354 0.0091478 46 4 1 -8.19024e-10 
1.43292 -0.673202 0.00156533 0.0025 0.546577 0.429288 1.96353 0.00914784 47 4 1 4.3982e-10 
1.43749 -0.67321 0.00169299 0.0025 0.546574 0.429284 1.96352 0.00914789 48 4 1 5.43905e-11 
1.44207 -0.673217 0.00184903 0.0025 0.546571 0.429279 1.96351 0.00914794 49 4 1 -9.01058e-10 
1.44664 -0.673226 0.00202399 0.0025 0.546568 0.429274 1.9635 0.009148 50 4 1 -6.32654e-10 
1.45122 -0.673234 0.00220307 0.0025 0.546564 0.429269 1.96349 0.00914807 51 4 1 2.90186e-10 
1.45579 -0.673244 0.00237843 0.0025 0.546559 0.429263 1.96348 0.00914814 52 4 1 -4.35982e-10 
1.46036 -0.673254 0.00255896 0.0025 0.546554 0.429257 1.96347 0.00914823 53 4 1 -1.21206e-09 
1.46494 -0.673266 0.00276759 0.0025 0.546549 0.42925 1.96346 0.00914832 54 4 1 -4.46569e-10 
1.46951 -0.673278 0.00302628 0.0025 0.546543 0.429242 1.96344 0.00914842 55 4 1 3.21575e-11 
1.47409 -0.673292 0.00333909 0.0025 0.546536 0.429234 1.96343 0.00914853 56 4 1 -1.12971e-09 
1.47866 -0.673306 0.00368734 0.0025 0.546528 0.429225 1.96341 0.00914866 57 4 1 -1.61285e-09 
1.48324 -0.673321 0.0040421 0.0025 0.54652 0.429215 1.9634 0.0091488 58 4 1 -4.24671e-10 
1.48781 -0.673339 0.00438714 0.0025 0.546511 0.429204 1.96338 0.00914895 59 4 1 -7.11212e-10 
1.49238 -0.673357 0.00473594 0.0025 0.546501 0.429192 1.96336 0.00914912 60 4 1 -1.46664e-09 
1.49696 -0.673379 0.00512873 0.0025 0.546489 0.429178 1.96334 0.00914931 61 4 1 -1.42289e-09 
-0.498466 -0.673402 0.00560965 0.0025 0.546477 0.429164 1.96332 0.00914951 62 4 1 -1.02103e-09 
-0.493891 -0.673428 0.00620246 0.0025 0.546464 0.429149 1.9633 0.00914974 63 4 1 -1.67647e-09 
-0.489316 -0.673457 0.00690616 0.0025 0.546449 0.429131 1.96327 0.00914999 64 4 1 -2.42052e-09 
-0.484741 -0.673489 0.00770944 0.0025 0.546432 0.429112 1.96325 0.00915027 65 4 1 -2.31667e-09 
-0.480166 -0.673524 0.00860093 0.0025 0.546413 0.429091 1.96322 0.00915059 66 4 1 -2.48965e-09 
-0.475591 -0.673564 0.00956636 0.0025 0.546391 0.429067 1.96318 0.00915095 67 4 1 -2.9558e-09 
-0.471015 -0.673607 0.0105949 0.0025 0.546368 0.42904 1.96315 0.00915135 68 4 1 -3.23023e-09 
-0.466439 -0.673657 0.0117075 0.0025 0.546341 0.42901 1.96311 0.00915179 69 4 1 -3.2183e-09 
-0.461863 -0.673712 0.0129732 0.0025 0.546312 0.428977 1.96306 0.00915228 70 4 1 -3.83365e-09 
-0.457287 -0.673775 0.0144797 0.0025 0.546279 0.428941 1.96301 0.00915283 71 4 1 -4.62292e-09 
-0.452711 -0.673844 0.016271 0.0025 0.546243 0.4289 1.96296 0.00915344 72 4 1 -4.99466e-09 
-0.448134 -0.673921 0.0182839 0.0025 0.546202 0.428855 1.9629 0.00915412 73 4 1 -5.4038e-09 
-0.443557 -0.674005 0.020338 0.0025 0.546157 0.428804 1.96283 0.00915488 74 4 1 -5.51405e-09 
-0.438979 -0.674097 0.0222416 0.0025 0.546106 0.428749 1.96275 0.00915572 75 4 1 -4.9414e-09 
-0.434401 -0.674199 0.0239418 0.0025 0.546052 0.428689 1.96267 0.00915664 76 4 1 -4.12392e-09 
-0.429822 -0.67431 0.025535 0.0025 0.545994 0.428624 1.96259 0.00915761 77 4 1 -3.461e-09 
-0.425243 -0.674429 0.0271326 0.0025 0.545933 0.428557 1.9625 0.00915864 78 4 1 -2.93423e-09 
-0.420664 -0.674554 0.0286538 0.0025 0.545869 0.428486 1.9624 0.00915971 79 4 1 -1.90885e-09 
-0.416083 -0.674681 0.0296686 0.0025 0.545804 0.428414 1.96231 0.00916081 80 4 1 2.39406e-10 
-0.411503 -0.674806 0.0296328 0.0025 0.545738 0.428342 1.96221 0.00916191 81 4 1 3.56595e-09 
-0.406922 -0.674927 0.028167 0.0025 0.545675 0.428272 1.96212 0.00916296 82 4 1 7.83754e-09 
-0.40234 -0.675039 0.0249804 0.0025 0.545619 0.42821 1.96204 0.00916391 83 4 1 1.2548e-08 
-0.397758 -0.675138 0.0203591 0.0025 0.545573 0.428159 1.96197 0.00916468 84 4 1 1.55826e-08 
-0.393175 -0.675216 0.0160175 0.0025 0.545539 0.428122 1.96192 0.00916524 85 4 1 1.68714e-08 
-0.388592 -0.67526 0.00954547 0.0025 0.54552 0.428101 1.96189 0.00916557 86 5 1 2.40459e-08 
-0.38401 -0.675274 -0.00225146 0.0025 0.54552 0.428102 1.96189 0.00916556 87 4 1 3.10769e-08 
-0.379427 -0.675233 -0.00904603 0.0025 0.545547 0.428133 1.96193 0.0091651 88 4 1 7.98715e-08 
-0.374844 -0.67511 -0.0508268 0.0025 0.545642 0.428242 1.96206 0.00916351 89 4 1 2.22923e-07 
-0.370263 -0.674632 -0.170728 0.0025 0.545918 0.42855 1.96246 0.00915888 90 4 1 3.58098e-07 
-0.365686 -0.673564 -0.311571 0.0025 0.546477 0.429165 1.96326 0.00914952 91 4 1 4.03182e-07 
-0.361114 -0.671925 -0.435024 0.0025 0.54734 0.430116 1.9645 0.00913509 92 4 1 4.87499e-07 
-0.35655 -0.669689 -0.602309 0.0025 0.548548 0.431451 1.96623 0.00911497 93 4 1 7.07759e-07 
-0.351999 -0.666528 -0.856025 0.0025 0.550224 0.433302 1.96863 0.00908721 94 4 1 9.16625e-07 
-0.347463 -0.662264 -1.11948 0.0025 0.552454 0.435762 1.97182 0.00905053 95 4 1 9.85593e-07 
-0.342948 -0.656981 -1.33723 0.0025 0.5552 0.438791 1.97573 0.00900576 96 4 1 9.20413e-07 
-0.338457 -0.650985 -1.46785 0.0025 0.55833 0.442253 1.98018 0.00895527 97 4 1 8.18923e-07 
-0.333993 -0.644586 -1.54931 0.0025 0.561709 0.446001 1.98497 0.00890141 98 4 1 7.93062e-07 
-0.329556 -0.637933 -1.6244 0.0025 0.565271 0.449965 1.98999 0.00884532 99 4 1 8.43291e-07 
-0.325147 -0.63097 -1.71302 0.0025 0.569013 0.454142 1.99525 0.00878715 100 4 1 9.25753e-07 
-0.320769 -0.623674 -1.81377 0.0025 0.572954 0.458552 2.00077 0.00872671 101 4 1 9.96633e-07 
-0.316421 -0.616021 -1.91431 0.0025 0.5771 0.463204 2.00655 0.00866401 102 4 1 1.02251e-06 
-0.312105 -0.608065 -1.99505 0.0025 0.581429 0.468073 2.01255 0.00859951 103 4 1 1.00035e-06 
-0.307821 -0.599914 -2.04873 0.0025 0.58589 0.473107 2.01872 0.00853402 104 4 1 9.46847e-07 
-0.30357 -0.591688 -2.07429 0.0025 0.590428 0.478241 2.02495 0.00846844 105 4 1 8.87042e-07 
-0.299352 -0.583454 -2.08351 0.0025 0.594991 0.483422 2.0312 0.00840349 106 4 1 8.13932e-07 
-0.295167 -0.575321 -2.06545 0.0025 0.599535 0.488597 2.03739 0.00833979 107 4 1 7.51915e-07 
-0.291013 -0.56733 -2.04524 0.0025 0.604031 0.493734 2.04349 0.00827772 108 4 1 7.23252e-07 
-0.286889 -0.559495 -2.02839 0.0025 0.608475 0.498827 2.04949 0.00821726 109 4 1 7.05396e-07 
-0.282795 -0.551771 -2.01605 0.0025 0.612873 0.503882 2.0554 0.00815829 110 4 1 6.75171e-07 
-0.278731 -0.544176 -1.99443 0.0025 0.617222 0.508893 2.06122 0.00810082 111 4 1 6.4245e-07 
-0.274694 -0.536728 -1.97345 0.0025 0.621515 0.513856 2.06694 0.00804486 112 4 1 6.29786e-07 
-0.270686 -0.529415 -1.96041 0.0025 0.62576 0.518777 2.07258 0.00799028 113 4 1 6.26275e-07 
-0.266704 -0.522171 -1.9537 0.0025 0.62997 0.523669 2.07815 0.00793689 114 4 1 5.96973e-07 
-0.262749 -0.515064 -1.92958 0.0025 0.634138 0.528526 2.08363 0.00788472 115 4 1 5.89458e-07 
-0.258819 -0.508052 -1.92896 0.0025 0.63827 0.533355 2.08905 0.00783367 116 4 1 6.0499e-07 
-0.254915 -0.501089 -1.93144 0.0025 0.642389 0.538179 2.09444 0.00778344 117 4 1 5.78734e-07 
-0.251036 -0.494207 -1.91455 0.0025 0.646485 0.54299 2.09977 0.00773413 118 4 1 5.78174e-07 
-0.247181 -0.487401 -1.9223 0.0025 0.650566 0.547796 2.10506 0.00768561 119 4 1 6.1399e-07 
-0.24335 -0.480581 -1.94346 0.0025 0.654663 0.552632 2.11035 0.00763752 120 4 1 6.20721e-07 
-0.239543 -0.47376 -1.95582 0.0025 0.658783 0.557506 2.11565 0.00758976 121 4 1 6.17781e-07 
-0.23576 -0.466934 -1.96997 0.0025 0.662923 0.562418 2.12096 0.00754236 122 4 1 6.36425e-07 
-0.232001 -0.460098 -1.99601 0.0025 0.667096 0.567382 2.12629 0.00749517 123 4 1 6.68802e-07 
-0.228265 -0.453217 -2.03443 0.0025 0.671324 0.572423 2.13167 0.00744797 124 4 1 6.8945e-07 
-0.224553 -0.446261 -2.07128 0.0025 0.675614 0.577549 2.13711 0.00740068 125 4 1 6.73781e-07 
-0.220864 -0.439247 -2.08731 0.0025 0.679947 0.582742 2.14258 0.00735351 126 4 1 6.55403e-07 
-0.217199 -0.432247 -2.10259 0.0025 0.684308 0.58798 2.14807 0.00730665 127 4 1 6.66241e-07 
-0.213557 -0.425227 -2.12951 0.0025 0.688701 0.593272 2.15357 0.00726005 128 4 1 6.81499e-07 
-0.209939 -0.418169 -2.15924 0.0025 0.693135 0.598625 2.15911 0.0072136 129 4 1 6.469e-07 
-0.206344 -0.411118 -2.15254 0.0025 0.697583 0.60401 2.16464 0.0071676 130 4 1 6.2701e-07 
-0.202771 -0.404126 -2.16581 0.0025 0.702033 0.609411 2.17015 0.00712218 131 4 1 6.44618e-07 
-0.199221 -0.397122 -2.18456 0.0025 0.706498 0.614844 2.17566 0.00707716 132 4 1 6.13707e-07 
-0.195694 -0.390157 -2.17354 0.0025 0.710962 0.620288 2.18115 0.00703273 133 4 1 5.97028e-07 
-0.192189 -0.383261 -2.18112 0.0025 0.715414 0.625733 2.1866 0.00698896 134 4 1 5.95838e-07 
-0.188705 -0.376399 -2.17888 0.0025 0.71986 0.631184 2.19203 0.00694579 135 4 1 5.9116e-07 
-0.185243 -0.369579 -2.18835 0.0025 0.724303 0.636645 2.19743 0.00690319 136 4 1 5.95472e-07 
-0.181802 -0.362786 -2.19706 0.0025 0.72875 0.642124 2.20281 0.00686106 137 4 1 5.76744e-07 
-0.178382 -0.356029 -2.19366 0.0025 0.733192 0.647609 2.20817 0.0068195 138 4 1 5.5747e-07 
-0.174982 -0.349331 -2.19007 0.0025 0.737619 0.65309 2.2135 0.00677857 139 4 1 5.5355e-07 
-0.171603 -0.342687 -2.19117 0.0025 0.742034 0.65857 2.21879 0.00673823 140 4 1 5.56883e-07 
-0.168244 -0.336073 -2.19891 0.0025 0.746447 0.66406 2.22405 0.0066984 141 4 1 5.66024e-07 
-0.164904 -0.329476 -2.21553 0.0025 0.750868 0.669571 2.22931 0.00665896 142 4 1 5.29794e-07 
-0.161585 -0.322929 -2.1917 0.0025 0.755273 0.675076 2.23454 0.00662012 143 4 1 5.02833e-07 
-0.158284 -0.316469 -2.18674 0.0025 0.759649 0.680559 2.2397 0.00658199 144 4 1 5.37189e-07 
-0.155003 -0.310049 -2.20859 0.0025 0.764029 0.68606 2.24486 0.00654426 145 4 1 5.57656e-07 
-0.15174 -0.303569 -2.23061 0.0025 0.768431 0.691599 2.25003 0.00650676 146 4 1 5.15376e-07 
-0.148496 -0.297163 -2.21013 0.0025 0.772826 0.697142 2.25516 0.00646976 147 4 1 4.80396e-07 
-0.14527 -0.290837 -2.20008 0.0025 0.77719 0.70266 2.26025 0.00643343 148 4 1 4.90884e-07 
-0.142062 -0.284566 -2.20271 0.0025 0.78154 0.708173 2.2653 0.00639762 149 4 1 5.18502e-07 
-0.138872 -0.278304 -2.22895 0.0025 0.785902 0.713713 2.27035 0.00636212 150 4 1 5.19126e-07 
-0.1357 -0.272015 -2.23601 0.0025 0.790279 0.719281 2.2754 0.00632688 151 4 1 4.65409e-07 
-0.132546 -0.265815 -2.20735 0.0025 0.794632 0.724833 2.2804 0.00629222 152 4 1 4.52854e-07 
-0.129408 -0.259684 -2.20819 0.0025 0.798955 0.730361 2.28536 0.00625817 153 4 1 4.73367e-07 
-0.126287 -0.253591 -2.21293 0.0025 0.803274 0.735896 2.29029 0.00622452 154 4 1 4.94515e-07 
-0.123183 -0.247488 -2.24053 0.0025 0.807609 0.741462 2.29522 0.00619111 155 4 1 4.95217e-07 
-0.120096 -0.241372 -2.2485 0.0025 0.811962 0.747061 2.30017 0.00615792 156 4 1 4.45309e-07 
-0.117025 -0.235324 -2.22382 0.0025 0.816295 0.752647 2.30507 0.00612524 157 4 1 4.28477e-07 
-0.113971 -0.229359 -2.22007 0.0025 0.820598 0.758208 2.30992 0.00609312 158 4 1 4.39081e-07 
-0.110932 -0.223425 -2.21855 0.0025 0.824889 0.763765 2.31474 0.00606142 159 4 1 4.59706e-07 
-0.107909 -0.217524 -2.24264 0.0025 0.829188 0.769344 2.31956 0.00603 160 4 1 4.72515e-07 
-0.104902 -0.211578 -2.25837 0.0025 0.833508 0.77496 2.32439 0.00599874 161 4 1 4.27971e-07 
-0.101911 -0.205698 -2.235 0.0025 0.837814 0.780571 2.32918 0.00596791 162 4 1 4.10967e-07 
-0.0989343 -0.19988 -2.2356 0.0025 0.842096 0.78616 2.33394 0.00593757 163 4 1 3.97918e-07 
-0.095973 -0.194127 -2.2083 0.0025 0.846351 0.791728 2.33864 0.00590772 164 4 1 4.35081e-07 
-0.0930266 -0.188428 -2.25403 0.0025 0.850614 0.797319 2.34335 0.00587811 165 4 1 4.80719e-07 
-0.0900949 -0.18264 -2.28361 0.0025 0.854925 0.802981 2.34809 0.00584847 166 4 1 4.42233e-07 
-0.0871781 -0.176913 -2.2811 0.0025 0.859251 0.808674 2.35284 0.00581902 167 4 1 4.08923e-07 
-0.0842758 -0.171239 -2.27078 0.0025 0.863561 0.814358 2.35755 0.00578998 168 4 1 3.70353e-07 
-0.081388 -0.165728 -2.23108 0.0025 0.867834 0.820005 2.36221 0.00576147 169 4 1 4.30921e-07 
-0.0785143 -0.160329 -2.29223 0.0025 0.872121 0.825687 2.36687 0.00573315 170 4 1 5.18248e-07 
-0.0756549 -0.154866 -2.35585 0.0025 0.876501 0.831498 2.37162 0.0057045 171 4 1 5.2249e-07 
-0.0728098 -0.149482 -2.40499 0.0025 0.880967 0.837434 2.37644 0.00567558 172 4 1 4.99206e-07 
-0.0699792 -0.144178 -2.42345 0.0025 0.885487 0.843453 2.38132 0.00564661 173 4 1 4.29253e-07 
-0.0671631 -0.139186 -2.38117 0.0025 0.890005 0.849486 2.38617 0.00561795 174 4 1 5.16398e-07 
-0.0643613 -0.13446 -2.49028 0.0025 0.894588 0.855622 2.39107 0.00558917 175 4 1 6.81255e-07 
-0.0615739 -0.129777 -2.6296 0.0025 0.899369 0.862032 2.39617 0.00555945 176 4 1 7.19505e-07 
-0.0588018 -0.125206 -2.74334 0.0025 0.904359 0.868734 2.40148 0.00552878 177 4 1 7.33424e-07 
-0.0560451 -0.120832 -2.85349 0.0025 0.90953 0.875694 2.40697 0.00549735 178 4 1 6.57768e-07 
-0.0533044 -0.11671 -2.85013 0.0025 0.914795 0.882793 2.41253 0.00546571 179 4 1 5.41908e-07 
-0.0505794 -0.113122 -2.8051 0.0025 0.920053 0.88991 2.41807 0.00543447 180 4 1 7.2852e-07 
-0.0478699 -0.109732 -3.01648 0.0025 0.925443 0.897224 2.42372 0.00540282 181 4 1 8.94087e-07 
-0.0451765 -0.106075 -3.16355 0.0025 0.931086 0.904886 2.42963 0.00537007 182 4 1 6.80334e-07 
-0.0424997 -0.10256 -3.0797 0.0025 0.936789 0.912649 2.43557 0.00533738 183 4 1 6.05449e-07 
-0.0398391 -0.0992546 -3.12154 0.0025 0.942458 0.920393 2.44145 0.00530528 184 4 1 6.40921e-07 
-0.0371944 -0.0958579 -3.12222 0.0025 0.948121 0.928136 2.44732 0.00527359 185 4 1 3.61203e-07 
-0.0345654 -0.0927461 -2.85713 0.0025 0.953584 0.935629 2.45294 0.00524338 186 4 1 4.00227e-07 
-0.031951 -0.0898326 -2.94465 0.0025 0.958887 0.942932 2.45838 0.00521438 187 4 1 6.66767e-07 
-0.029351 -0.0859799 -3.11572 0.0025 0.96425 0.950308 2.46389 0.00518538 188 4 1 8.78211e-08 
-0.0267656 -0.081161 -2.54517 0.0025 0.969192 0.957095 2.46895 0.00515894 189 4 1 -9.58361e-07 
-0.024192 -0.0758897 -1.41114 0.0025 0.972866 0.962192 2.47268 0.00513945 190 4 1 -6.47706e-07 
-0.0216261 -0.0698527 -1.40233 0.0025 0.975656 0.966109 2.47549 0.00512476 191 4 1 5.01272e-07 
-0.0190673 -0.0632409 -2.09457 0.0025 0.978725 0.970351 2.4786 0.00510869 192 4 1 2.64109e-07 
-0.0165174 -0.0575332 -1.72858 0.0025 0.981781 0.974515 2.48174 0.00509279 193 4 1 -1.63318e-06 
-0.0139745 -0.0501611 0.420666 0.0025 0.983001 0.976223 2.48299 0.00508646 194 3 1 -1.71729e-06 
-0.0114309 -0.0395412 0.888357 0.0025 0.982439 0.975576 2.48238 0.00508938 195 5 1 1.05471e-06 
-0.00888511 -0.0286462 -1.41971 0.0025 0.983015 0.976389 2.48292 0.00508639 196 4 1 1.81703e-06 
-0.00634453 -0.0221109 -1.86274 0.0025 0.985258 0.97935 2.48526 0.00507481 197 4 1 -1.70214e-06 
-0.00381029 -0.015663 1.30308 0.0025 0.985682 0.979932 2.48573 0.00507263 198 3 1 -2.29662e-06 
-0.0012719 -0.00578548 1.66545 0.0025 0.98383 0.977548 2.48378 0.00508218 199 4 1 1.89564e-06 
0.0012719 0.00578548 -1.66545 0.0025 0.98383 0.977548 2.48378 0.00508218 200 4 1 1.89564e-06 
0.00381029 0.015663 -1.30308 0.0025 0.985682 0.979932 2.48573 0.00507263 201 3 1 -2.29662e-06 
0.00634453 0.0221109 1.86274 0.0025 0.985258 0.97935 2.48526 0.00507481 202 4 1 -1.70214e-06 
0.00888511 0.0286462 1.41971 0.0025 0.983015 0.976389 2.48292 0.00508639 203 4 1 1.81703e-06 
0.0114309 0.0395412 -0.888357 0.0025 0.982439 0.975576 2.48238 0.00508938 204 5 1 1.05471e-06 
0.0139745 0.0501611 -0.420666 0.0025 0.983001 0.976223 2.48299 0.00508646 205 3 1 -1.71729e-06 
0.0165174 0.0575332 1.72858 0.0025 0.981781 0.974515 2.48174 0.00509279 206 4 1 -1.63318e-06 
0.0190673 0.0632409 2.09457 0.0025 0.978725 0.970351 2.4786 0.00510869 207 4 1 2.64109e-07 
0.0216261 0.0698527 1.40233 0.0025 0.975656 0.966109 2.47549 0.00512476 208 4 1 5.01272e-07 
0.024192 0.0758897 1.41114 0.0025 0.972866 0.962192 2.47268 0.00513945 209 4 1 -6.47706e-07 
0.0267656 0.081161 2.54517 0.0025 0.969192 0.957095 2.46895 0.00515894 210 4 1 -9.58361e-07 
