# Time [s]: 0.424575
# Columns: pos [m], vel [m/s], acc [m/s^2], mass [kg], dens [kg/m^3], pres [Pa], ene [J/kg], sml [m], id, neighbor, alpha, gradh, ...additional?
1.21645 -0.673077 3.11653e-05 0.0025 0.511059 0.432736 2.15252 0.00978361 0 4 1 -0.000134225 
1.22123 -0.673077 3.24992e-05 0.0025 0.536917 0.426199 1.95005 0.00931243 1 4 1 0.000179254 
1.22577 -0.673078 3.33495e-05 0.0025 0.548247 0.43087 1.96851 0.00911997 2 3 1 -1.90585e-05 
1.23035 -0.673078 3.39239e-05 0.0025 0.545983 0.429206 1.96466 0.0091578 3 5 1 3.48562e-06 
1.23492 -0.673079 3.46657e-05 0.0025 0.546381 0.429361 1.9646 0.00915112 4 4 1 -1.3868e-07 
1.2395 -0.673079 3.61074e-05 0.0025 0.546392 0.429332 1.96436 0.00915094 5 4 1 1.43737e-07 
1.24408 -0.67308 3.8535e-05 0.0025 0.546415 0.429331 1.96431 0.00915055 6 4 1 -3.50454e-09 
1.24865 -0.673081 4.17494e-05 0.0025 0.546429 0.429328 1.96424 0.00915032 7 4 1 8.24179e-09 
1.25323 -0.673082 4.50004e-05 0.0025 0.546443 0.429328 1.96419 0.00915008 8 4 1 4.77276e-09 
1.2578 -0.673083 4.70828e-05 0.0025 0.546456 0.429327 1.96414 0.00914987 9 4 1 5.48949e-09 
1.26238 -0.673083 4.6473e-05 0.0025 0.546468 0.429327 1.9641 0.00914967 10 4 1 -2.2176e-09 
1.26695 -0.673084 4.13489e-05 0.0025 0.546479 0.429327 1.96406 0.00914948 11 4 1 4.76395e-09 
1.27152 -0.673085 2.94302e-05 0.0025 0.546489 0.429327 1.96402 0.00914931 12 4 1 2.90591e-09 
1.2761 -0.673087 7.77229e-06 0.0025 0.546499 0.429327 1.96399 0.00914915 13 4 1 3.65482e-09 
1.28067 -0.673088 -2.71643e-05 0.0025 0.546507 0.429327 1.96396 0.00914902 14 4 1 2.24117e-09 
1.28525 -0.67309 -7.88134e-05 0.0025 0.546515 0.429327 1.96393 0.00914888 15 4 1 -1.41253e-09 
1.28982 -0.673092 -0.00014903 0.0025 0.546522 0.429327 1.9639 0.00914876 16 4 1 5.1239e-09 
1.2944 -0.673094 -0.000236152 0.0025 0.546529 0.429328 1.96388 0.00914864 17 4 1 1.74975e-09 
1.29897 -0.673097 -0.000333377 0.0025 0.546536 0.429328 1.96386 0.00914853 18 4 1 -8.98001e-10 
1.30355 -0.673101 -0.000428437 0.0025 0.546543 0.429329 1.96384 0.00914842 19 4 1 2.9913e-09 
1.30812 -0.673105 -0.000505225 0.0025 0.546549 0.42933 1.96382 0.00914831 20 4 1 1.41583e-09 
1.31269 -0.673109 -0.000547241 0.0025 0.546555 0.429331 1.96381 0.00914821 21 4 1 1.35169e-09 
1.31727 -0.673114 -0.000541846 0.0025 0.546561 0.429332 1.96379 0.00914812 22 4 1 1.10026e-09 
1.32184 -0.673119 -0.000483777 0.0025 0.546566 0.429334 1.96378 0.00914803 23 4 1 -2.5839e-10 
1.32642 -0.673124 -0.000376634 0.0025 0.546571 0.429335 1.96376 0.00914794 24 4 1 1.27186e-09 
1.33099 -0.673128 -0.000231836 0.0025 0.546575 0.429336 1.96375 0.00914787 25 4 1 4.40669e-10 
1.33556 -0.673132 -6.55353e-05 0.0025 0.546579 0.429336 1.96374 0.0091478 26 4 1 -7.0647e-10 
1.34014 -0.673135 0.00010533 0.0025 0.546583 0.429336 1.96373 0.00914774 27 4 1 8.69952e-10 
1.34471 -0.673138 0.000266534 0.0025 0.546586 0.429336 1.96372 0.0091477 28 4 1 5.39189e-10 
1.34929 -0.67314 0.000408672 0.0025 0.546588 0.429335 1.96371 0.00914766 29 4 1 -1.04634e-09 
1.35386 -0.673142 0.000527563 0.0025 0.54659 0.429334 1.96369 0.00914763 30 4 1 2.80874e-10 
1.35843 -0.673144 0.000623309 0.0025 0.546591 0.429333 1.96368 0.00914761 31 4 1 1.79416e-09 
1.36301 -0.673146 0.000698771 0.0025 0.546592 0.429331 1.96367 0.0091476 32 4 1 -9.86249e-10 
1.36758 -0.673148 0.000758217 0.0025 0.546592 0.429329 1.96366 0.00914759 33 4 1 -9.2291e-10 
1.37215 -0.67315 0.000806446 0.0025 0.546593 0.429327 1.96365 0.00914758 34 4 1 2.04659e-09 
1.37673 -0.673151 0.000848217 0.0025 0.546593 0.429325 1.96364 0.00914758 35 3 1 -2.63556e-10 
1.3813 -0.673154 0.000887596 0.0025 0.546593 0.429323 1.96363 0.00914758 36 4 1 -9.22793e-10 
1.38588 -0.673156 0.000927268 0.0025 0.546592 0.429321 1.96362 0.00914758 37 4 1 1.38977e-09 
1.39045 -0.673159 0.000968253 0.0025 0.546592 0.429318 1.96361 0.00914759 38 4 1 6.42468e-11 
1.39502 -0.673161 0.00101049 0.0025 0.546591 0.429316 1.9636 0.0091476 39 4 1 -7.54732e-10 
1.3996 -0.673165 0.00105403 0.0025 0.54659 0.429313 1.96359 0.00914762 40 4 1 6.93272e-10 
1.40417 -0.673168 0.00109979 0.0025 0.546589 0.42931 1.96359 0.00914764 41 4 1 4.2296e-10 
1.40875 -0.673172 0.0011492 0.0025 0.546588 0.429307 1.96358 0.00914766 42 4 1 -6.48044e-10 
1.41332 -0.673177 0.00120337 0.0025 0.546587 0.429304 1.96357 0.00914768 43 4 1 -3.54558e-11 
1.41789 -0.673182 0.00126316 0.0025 0.546585 0.429301 1.96356 0.00914771 44 4 1 9.26508e-10 
1.42247 -0.673187 0.00133103 0.0025 0.546583 0.429297 1.96355 0.00914774 45 4 1 -4.31568e-10 
1.42704 -0.673193 0.00141291 0.0025 0.546581 0.429294 1.96354 0.00914778 46 4 1 -8.19968e-10 
1.43161 -0.673199 0.00151689 0.0025 0.546579 0.42929 1.96353 0.00914781 47 4 1 4.3358e-10 
1.43619 -0.673206 0.00164793 0.0025 0.546576 0.429286 1.96352 0.00914786 48 4 1 5.05899e-11 
1.44076 -0.673214 0.00180216 0.0025 0.546573 0.429281 1.96351 0.00914791 49 4 1 -8.91859e-10 
1.44534 -0.673222 0.00196729 0.0025 0.546569 0.429277 1.9635 0.00914797 50 4 1 -6.05606e-10 
1.44991 -0.67323 0.00213119 0.0025 0.546566 0.429271 1.96349 0.00914803 51 4 1 3.28016e-10 
1.45448 -0.67324 0.00229333 0.0025 0.546561 0.429265 1.96348 0.0091481 52 4 1 -4.03171e-10 
1.45906 -0.67325 0.002469 0.0025 0.546556 0.429259 1.96347 0.00914819 53 4 1 -1.19675e-09 
1.46363 -0.673261 0.00268082 0.0025 0.546551 0.429253 1.96346 0.00914827 54 4 1 -4.46121e-10 
1.46821 -0.673272 0.00294251 0.0025 0.546546 0.429245 1.96345 0.00914837 55 4 1 3.6673e-11 
1.47278 -0.673285 0.00324725 0.0025 0.546539 0.429237 1.96343 0.00914848 56 4 1 -1.0978e-09 
1.47736 -0.673299 0.00357072 0.0025 0.546532 0.429228 1.96342 0.0091486 57 4 1 -1.54295e-09 
1.48193 -0.673314 0.00388873 0.0025 0.546524 0.429219 1.9634 0.00914873 58 4 1 -3.2861e-10 
1.4865 -0.67333 0.00419774 0.0025 0.546515 0.429208 1.96339 0.00914888 59 4 1 -6.16855e-10 
1.49108 -0.673348 0.00452303 0.0025 0.546505 0.429197 1.96337 0.00914905 60 4 1 -1.39808e-09 
1.49565 -0.673369 0.00490637 0.0025 0.546494 0.429184 1.96335 0.00914922 61 4 1 -1.38191e-09 
-0.499772 -0.673392 0.00538202 0.0025 0.546483 0.42917 1.96333 0.00914942 62 4 1 -9.86326e-10 
-0.495198 -0.673417 0.0059612 0.0025 0.54647 0.429156 1.96331 0.00914963 63 4 1 -1.6213e-09 
-0.490623 -0.673444 0.00663674 0.0025 0.546455 0.429139 1.96328 0.00914988 64 4 1 -2.32914e-09 
-0.486048 -0.673475 0.00739639 0.0025 0.546439 0.42912 1.96326 0.00915015 65 4 1 -2.18317e-09 
-0.481473 -0.673508 0.00822698 0.0025 0.546421 0.4291 1.96323 0.00915045 66 4 1 -2.31123e-09 
-0.476897 -0.673545 0.00911495 0.0025 0.546401 0.429077 1.9632 0.00915079 67 4 1 -2.74229e-09 
-0.472322 -0.673587 0.0100632 0.0025 0.546378 0.429051 1.96316 0.00915117 68 4 1 -3.01862e-09 
-0.467746 -0.673635 0.0111158 0.0025 0.546353 0.429023 1.96312 0.00915159 69 4 1 -3.05915e-09 
-0.46317 -0.673688 0.0123545 0.0025 0.546325 0.428992 1.96308 0.00915206 70 4 1 -3.75035e-09 
-0.458594 -0.673747 0.0138537 0.0025 0.546294 0.428957 1.96303 0.00915258 71 4 1 -4.58046e-09 
-0.454018 -0.673813 0.0156173 0.0025 0.546259 0.428918 1.96298 0.00915316 72 4 1 -4.9069e-09 
-0.449441 -0.673886 0.0175398 0.0025 0.54622 0.428875 1.96292 0.00915382 73 4 1 -5.19967e-09 
-0.444864 -0.673966 0.0194472 0.0025 0.546177 0.428826 1.96286 0.00915455 74 4 1 -5.24149e-09 
-0.440286 -0.674055 0.0212285 0.0025 0.546128 0.428773 1.96279 0.00915535 75 4 1 -4.78913e-09 
-0.435708 -0.674153 0.0229271 0.0025 0.546076 0.428715 1.96271 0.00915623 76 4 1 -4.29862e-09 
-0.43113 -0.674261 0.0246779 0.0025 0.54602 0.428653 1.96263 0.00915717 77 4 1 -4.03669e-09 
-0.426551 -0.674377 0.0265397 0.0025 0.545961 0.428587 1.96254 0.00915817 78 4 1 -3.77358e-09 
-0.421972 -0.674499 0.028305 0.0025 0.545898 0.428518 1.96245 0.00915922 79 4 1 -2.76677e-09 
-0.417392 -0.674624 0.0295 0.0025 0.545833 0.428446 1.96235 0.00916032 80 4 1 -5.64367e-10 
-0.412812 -0.674749 0.0296638 0.0025 0.545766 0.428373 1.96225 0.00916143 81 4 1 2.70852e-09 
-0.408231 -0.674872 0.0284617 0.0025 0.545703 0.428302 1.96216 0.0091625 82 4 1 6.72276e-09 
-0.403649 -0.674989 0.0258498 0.0025 0.545644 0.428238 1.96207 0.00916349 83 4 1 1.05627e-08 
-0.399067 -0.675096 0.0225274 0.0025 0.545594 0.428183 1.962 0.00916432 84 4 1 1.28592e-08 
-0.394485 -0.675182 0.0186066 0.0025 0.545555 0.428139 1.96194 0.00916499 85 4 1 1.62876e-08 
-0.389902 -0.67524 0.0114195 0.0025 0.545529 0.42811 1.9619 0.00916542 86 4 1 2.0204e-08 
-0.385319 -0.675272 0.00514034 0.0025 0.545519 0.4281 1.96189 0.00916558 87 5 1 2.74148e-08 
-0.380737 -0.675249 -0.00751497 0.0025 0.545533 0.428116 1.96191 0.00916535 88 4 1 4.88573e-08 
-0.376154 -0.67518 -0.0233302 0.0025 0.545589 0.428181 1.96198 0.00916441 89 4 1 1.49201e-07 
-0.371572 -0.674902 -0.109319 0.0025 0.545768 0.428383 1.96224 0.0091614 90 4 1 3.07976e-07 
-0.366993 -0.67411 -0.250757 0.0025 0.546193 0.428853 1.96285 0.00915427 91 4 1 3.9189e-07 
-0.362418 -0.672717 -0.381915 0.0025 0.546921 0.429654 1.9639 0.00914208 92 4 1 4.30864e-07 
-0.357851 -0.670769 -0.514601 0.0025 0.547964 0.430805 1.96539 0.00912469 93 4 1 5.9406e-07 
-0.353293 -0.66807 -0.734903 0.0025 0.549411 0.432404 1.96746 0.00910066 94 4 1 8.28208e-07 
-0.34875 -0.664319 -0.997971 0.0025 0.551382 0.434579 1.97028 0.00906813 95 4 1 9.66061e-07 
-0.344225 -0.659486 -1.24379 0.0025 0.553897 0.437353 1.97387 0.00902696 96 4 1 9.59081e-07 
-0.339723 -0.653781 -1.41338 0.0025 0.556862 0.440628 1.9781 0.00897889 97 4 1 8.62722e-07 
-0.335246 -0.647558 -1.51511 0.0025 0.560134 0.444252 1.98274 0.00892643 98 4 1 7.86152e-07 
-0.330796 -0.641041 -1.58165 0.0025 0.563606 0.448111 1.98765 0.00887144 99 4 1 8.01692e-07 
-0.326375 -0.634245 -1.66436 0.0025 0.56725 0.452172 1.99277 0.00881446 100 4 1 8.78314e-07 
-0.321982 -0.627138 -1.7575 0.0025 0.571081 0.456454 1.99815 0.00875533 101 4 1 9.56494e-07 
-0.317619 -0.619682 -1.85962 0.0025 0.575113 0.460973 2.00378 0.00869394 102 4 1 1.00849e-06 
-0.313288 -0.611893 -1.9515 0.0025 0.579342 0.465723 2.00966 0.00863049 103 4 1 1.00911e-06 
-0.308989 -0.60386 -2.01862 0.0025 0.583729 0.470665 2.01573 0.00856563 104 4 1 9.62876e-07 
-0.304722 -0.595691 -2.05309 0.0025 0.588215 0.475735 2.02192 0.00850029 105 4 1 9.10255e-07 
-0.300488 -0.587488 -2.0744 0.0025 0.592751 0.480877 2.02814 0.00843524 106 4 1 8.43931e-07 
-0.296287 -0.579328 -2.06615 0.0025 0.597291 0.486039 2.03434 0.00837113 107 4 1 7.74611e-07 
-0.292117 -0.5713 -2.04879 0.0025 0.601794 0.491176 2.04046 0.00830849 108 4 1 7.26923e-07 
-0.287978 -0.563426 -2.02511 0.0025 0.606245 0.496269 2.04648 0.0082475 109 4 1 7.05618e-07 
-0.283869 -0.55568 -2.01378 0.0025 0.610645 0.501319 2.05241 0.00818807 110 4 1 6.88614e-07 
-0.27979 -0.548048 -1.99809 0.0025 0.615001 0.506332 2.05825 0.00813007 111 4 1 6.55091e-07 
-0.275739 -0.540559 -1.97693 0.0025 0.619305 0.5113 2.064 0.00807356 112 4 1 6.23457e-07 
-0.271716 -0.53321 -1.95336 0.0025 0.623554 0.516218 2.06965 0.00801855 113 4 1 6.27909e-07 
-0.26772 -0.525963 -1.95456 0.0025 0.627764 0.521104 2.07523 0.00796478 114 4 1 6.09866e-07 
-0.263751 -0.518808 -1.93165 0.0025 0.631938 0.525961 2.08074 0.00791216 115 4 1 5.81338e-07 
-0.259808 -0.511784 -1.91969 0.0025 0.636069 0.530781 2.08617 0.00786078 116 4 1 5.96957e-07 
-0.25589 -0.50483 -1.92445 0.0025 0.640179 0.535589 2.09155 0.00781032 117 4 1 5.8964e-07 
-0.251998 -0.497921 -1.91591 0.0025 0.644272 0.540388 2.09689 0.0077607 118 4 1 5.66241e-07 
-0.24813 -0.491112 -1.90587 0.0025 0.64834 0.545173 2.10217 0.007712 119 4 1 5.89579e-07 
-0.244286 -0.484333 -1.92455 0.0025 0.652408 0.549969 2.10744 0.00766391 120 4 1 6.14001e-07 
-0.240466 -0.477538 -1.93933 0.0025 0.656497 0.5548 2.11271 0.00761618 121 4 1 6.14591e-07 
-0.236669 -0.47074 -1.95483 0.0025 0.660608 0.55967 2.11799 0.00756879 122 4 1 6.23145e-07 
-0.232897 -0.463948 -1.9739 0.0025 0.664747 0.564586 2.12329 0.00752166 123 4 1 6.42722e-07 
-0.229148 -0.457132 -2.00281 0.0025 0.668926 0.569562 2.12862 0.00747467 124 4 1 6.67993e-07 
-0.225422 -0.450248 -2.03882 0.0025 0.673159 0.574614 2.134 0.00742767 125 4 1 6.81215e-07 
-0.22172 -0.443283 -2.07239 0.0025 0.677449 0.579747 2.13943 0.00738063 126 4 1 6.61561e-07 
-0.218041 -0.436306 -2.08351 0.0025 0.681777 0.584938 2.14488 0.00733378 127 4 1 6.49595e-07 
-0.214386 -0.429331 -2.10309 0.0025 0.68613 0.590174 2.15035 0.00728725 128 4 1 6.68833e-07 
-0.210754 -0.422334 -2.13351 0.0025 0.69052 0.595467 2.15584 0.00724091 129 4 1 6.65582e-07 
-0.207145 -0.415291 -2.1495 0.0025 0.694944 0.600813 2.16136 0.00719483 130 4 1 6.27923e-07 
-0.203559 -0.408305 -2.14431 0.0025 0.699372 0.606179 2.16686 0.00714927 131 4 1 6.27862e-07 
-0.199996 -0.401343 -2.16523 0.0025 0.703806 0.611567 2.17234 0.00710423 132 4 1 6.31493e-07 
-0.196455 -0.394371 -2.17192 0.0025 0.708253 0.616983 2.17782 0.00705962 133 4 1 5.99815e-07 
-0.192936 -0.387477 -2.16598 0.0025 0.712693 0.622403 2.18327 0.00701565 134 4 1 5.89181e-07 
-0.189439 -0.380616 -2.16961 0.0025 0.717122 0.627825 2.18869 0.00697232 135 4 1 5.89462e-07 
-0.185964 -0.373809 -2.17324 0.0025 0.721546 0.633255 2.19408 0.00692956 136 4 1 5.87736e-07 
-0.182509 -0.367033 -2.1811 0.0025 0.725971 0.638698 2.19945 0.00688733 137 4 1 5.82963e-07 
-0.179076 -0.360277 -2.18617 0.0025 0.730396 0.644154 2.2048 0.0068456 138 4 1 5.65829e-07 
-0.175664 -0.353572 -2.18331 0.0025 0.734813 0.649614 2.21012 0.00680445 139 4 1 5.48873e-07 
-0.172272 -0.346925 -2.1786 0.0025 0.739215 0.655068 2.21541 0.00676394 140 4 1 5.48367e-07 
-0.1689 -0.340322 -2.18366 0.0025 0.743607 0.660525 2.22067 0.00672398 141 4 1 5.58471e-07 
-0.165548 -0.333757 -2.19618 0.0025 0.748004 0.665998 2.22591 0.00668446 142 4 1 5.48829e-07 
-0.162215 -0.327186 -2.19756 0.0025 0.7524 0.671484 2.23113 0.0066454 143 4 1 5.17001e-07 
-0.158902 -0.320705 -2.18269 0.0025 0.756777 0.676959 2.23631 0.00660696 144 4 1 4.98446e-07 
-0.155608 -0.314295 -2.17255 0.0025 0.761128 0.682415 2.24145 0.0065692 145 4 1 5.4564e-07 
-0.152333 -0.307886 -2.21536 0.0025 0.765494 0.687902 2.24658 0.00653173 146 4 1 5.48884e-07 
-0.149076 -0.301453 -2.21376 0.0025 0.769881 0.693425 2.25172 0.00649451 147 4 1 4.92615e-07 
-0.145838 -0.295101 -2.19766 0.0025 0.774247 0.698937 2.25682 0.00645789 148 4 1 4.78549e-07 
-0.142619 -0.288824 -2.18983 0.0025 0.778586 0.704427 2.26187 0.0064219 149 4 1 4.8835e-07 
-0.139416 -0.282594 -2.19498 0.0025 0.782915 0.709918 2.26689 0.00638639 150 4 1 5.21366e-07 
-0.136232 -0.276349 -2.22795 0.0025 0.787262 0.715442 2.27192 0.00635112 151 4 1 5.01085e-07 
-0.133065 -0.270102 -2.21525 0.0025 0.791615 0.720985 2.27694 0.0063162 152 4 1 4.5308e-07 
-0.129916 -0.263958 -2.19884 0.0025 0.795939 0.726503 2.2819 0.00628189 153 4 1 4.52531e-07 
-0.126783 -0.257864 -2.19538 0.0025 0.800239 0.732005 2.28682 0.00624813 154 4 1 4.72528e-07 
-0.123668 -0.251804 -2.20961 0.0025 0.804539 0.737519 2.29173 0.00621474 155 4 1 4.97547e-07 
-0.120569 -0.245726 -2.23663 0.0025 0.808862 0.743072 2.29665 0.00618153 156 4 1 4.79971e-07 
-0.117486 -0.239647 -2.23345 0.0025 0.813194 0.748648 2.30156 0.00614859 157 4 1 4.31606e-07 
-0.11442 -0.233654 -2.21038 0.0025 0.817499 0.754202 2.30643 0.00611622 158 4 1 4.29149e-07 
-0.11137 -0.227723 -2.21322 0.0025 0.82178 0.759737 2.31125 0.00608435 159 4 1 4.3487e-07 
-0.108336 -0.221836 -2.20677 0.0025 0.82605 0.765271 2.31604 0.0060529 160 4 1 4.61875e-07 
-0.105317 -0.215948 -2.2428 0.0025 0.830334 0.770833 2.32084 0.00602167 161 4 1 4.62717e-07 
-0.102314 -0.210037 -2.24146 0.0025 0.834635 0.776428 2.32564 0.00599064 162 4 1 4.1782e-07 
-0.0993262 -0.20421 -2.22752 0.0025 0.838918 0.782011 2.33041 0.00596006 163 4 1 4.11366e-07 
-0.0963538 -0.198424 -2.2253 0.0025 0.843181 0.787579 2.33514 0.00592993 164 4 1 3.96519e-07 
-0.0933963 -0.192745 -2.20254 0.0025 0.84742 0.79313 2.33983 0.00590026 165 4 1 4.523e-07 
-0.0904535 -0.187058 -2.2656 0.0025 0.851684 0.798724 2.34453 0.00587072 166 4 1 4.78831e-07 
-0.0875255 -0.181331 -2.27647 0.0025 0.855997 0.804391 2.34927 0.00584114 167 4 1 4.45672e-07 
-0.0846123 -0.17567 -2.29295 0.0025 0.860328 0.810094 2.35402 0.00581174 168 4 1 4.24528e-07 
-0.0817137 -0.170097 -2.27914 0.0025 0.864657 0.815805 2.35875 0.00578264 169 4 1 3.87019e-07 
-0.0788296 -0.164729 -2.25348 0.0025 0.86896 0.821498 2.36343 0.005754 170 4 1 4.80858e-07 
-0.0759597 -0.159432 -2.34663 0.0025 0.873316 0.827272 2.36817 0.0057253 171 4 1 5.54439e-07 
-0.0731043 -0.154141 -2.4011 0.0025 0.877788 0.833208 2.37301 0.00569614 172 4 1 5.69655e-07 
-0.0702635 -0.14895 -2.48498 0.0025 0.88237 0.839304 2.37796 0.00566656 173 4 1 5.57522e-07 
-0.0674377 -0.143917 -2.50533 0.0025 0.887041 0.845527 2.38299 0.00563672 174 4 1 4.96688e-07 
-0.0646267 -0.139285 -2.49699 0.0025 0.891742 0.85181 2.38803 0.005607 175 4 1 6.07645e-07 
-0.0618306 -0.134882 -2.6307 0.0025 0.896556 0.858261 2.39317 0.00557689 176 4 1 7.6339e-07 
-0.0590498 -0.130569 -2.78438 0.0025 0.901601 0.865029 2.39855 0.00554569 177 4 1 7.77159e-07 
-0.0562849 -0.126402 -2.88688 0.0025 0.906859 0.872098 2.40414 0.00551354 178 4 1 7.84502e-07 
-0.0535362 -0.122413 -3.00715 0.0025 0.912292 0.879418 2.40989 0.0054807 179 4 1 6.72962e-07 
-0.0508041 -0.118691 -2.95831 0.0025 0.917786 0.886834 2.41569 0.00544789 180 4 1 5.14483e-07 
-0.0480883 -0.115427 -2.88003 0.0025 0.92321 0.894187 2.42138 0.00541589 181 4 1 7.23526e-07 
-0.0453882 -0.112178 -3.0924 0.0025 0.928729 0.901685 2.42716 0.0053837 182 4 1 8.60193e-07 
-0.0427045 -0.108641 -3.18705 0.0025 0.934452 0.909465 2.43314 0.00535073 183 4 1 6.11153e-07 
-0.0400374 -0.105237 -3.06998 0.0025 0.940163 0.917253 2.43908 0.00531822 184 4 1 5.61299e-07 
-0.0373862 -0.101947 -3.11565 0.0025 0.945798 0.92496 2.44491 0.00528654 185 4 1 5.51149e-07 
-0.0347508 -0.0984944 -3.06577 0.0025 0.951355 0.93256 2.45066 0.00525566 186 4 1 8.69974e-08 
-0.0321305 -0.0951735 -2.61576 0.0025 0.956481 0.93959 2.45593 0.0052275 187 4 1 -1.43796e-07 
-0.0295233 -0.0913576 -2.35809 0.0025 0.961001 0.945818 2.46056 0.00520291 188 4 1 -1.30668e-07 
-0.0269276 -0.0857194 -2.0533 0.0025 0.964987 0.951318 2.46466 0.00518142 189 4 1 -3.78213e-07 
-0.0243419 -0.0786555 -1.60201 0.0025 0.968354 0.955972 2.46809 0.0051634 190 4 1 -2.64392e-07 
-0.0217642 -0.0726051 -1.58994 0.0025 0.971291 0.96004 2.47105 0.00514779 191 4 1 2.512e-07 
-0.0191941 -0.0673923 -1.86018 0.0025 0.974158 0.963965 2.47399 0.00513264 192 4 1 -9.37396e-07 
-0.0166315 -0.0595352 -0.161688 0.0025 0.975841 0.966281 2.47576 0.00512378 193 3 1 -1.91845e-06 
-0.0140703 -0.048379 0.997394 0.0025 0.975563 0.965987 2.47543 0.00512525 194 4 1 3.14756e-08 
-0.0115063 -0.0386855 -0.406777 0.0025 0.975439 0.965871 2.47522 0.0051259 195 5 1 2.18112e-06 
-0.00894438 -0.0327928 -2.22972 0.0025 0.977351 0.968428 2.47721 0.00511587 196 4 1 5.8195e-09 
-0.00639041 -0.0245582 -0.282365 0.0025 0.979094 0.970786 2.4791 0.00510676 197 3 1 -2.44249e-06 
-0.00383762 -0.0124695 1.4227 0.0025 0.978405 0.96991 2.47837 0.00511036 198 4 1 -7.57051e-07 
-0.00128005 -0.00300059 0.727427 0.0025 0.977009 0.968022 2.47684 0.00511766 199 4 1 1.48365e-06 
0.00128005 0.00300059 -0.727427 0.0025 0.977009 0.968022 2.47684 0.00511766 200 4 1 1.48365e-06 
0.00383762 0.0124695 -1.4227 0.0025 0.978405 0.96991 2.47837 0.00511036 201 4 1 -7.57051e-07 
0.00639041 0.0245582 0.282365 0.0025 0.979094 0.970786 2.4791 0.00510676 202 3 1 -2.44249e-06 
0.00894438 0.0327928 2.22972 0.0025 0.977351 0.968428 2.47721 0.00511587 203 4 1 5.8195e-09 
0.0115063 0.0386855 0.406777 0.0025 0.975439 0.965871 2.47522 0.0051259 204 5 1 2.18112e-06 
0.0140703 0.048379 -0.997394 0.0025 0.975563 0.965987 2.47543 0.00512525 205 4 1 3.14756e-08 
0.0166315 0.0595352 0.161688 0.0025 0.975841 0.966281 2.47576 0.00512378 206 3 1 -1.91845e-06 
0.0191941 0.0673923 1.86018 0.0025 0.974158 0.963965 2.47399 0.00513264 207 4 1 -9.37396e-07 
0.0217642 0.0726051 1.58994 0.0025 0.971291 0.96004 2.47105 0.00514779 208 4 1 2.512e-07 
0.0243419 0.0786555 1.60201 0.0025 0.968354 0.955972 2.46809 0.0051634 209 4 1 -2.64392e-07 
0.0269276 0.0857194 2.0533 0.0025 0.964987 0.951318 2.46466 0.00518142 210 4 1 -3.78213e-07 
