# Time [s]: 0.431163
# Columns: pos [m], vel [m/s], acc [m/s^2], mass [kg], dens [kg/m^3], pres [Pa], ene [J/kg], sml [m], id, neighbor, alpha, gradh, ...additional?
1.21201 -0.673076 1.87139e-05 0.0025 0.511059 0.432737 2.15252 0.0097836 0 4 1 -0.000134225 
1.21679 -0.673077 1.87271e-05 0.0025 0.536917 0.4262 1.95005 0.00931242 1 4 1 0.000179254 
1.22133 -0.673077 1.86942e-05 0.0025 0.548248 0.43087 1.96852 0.00911996 2 3 1 -1.90585e-05 
1.22591 -0.673078 1.90107e-05 0.0025 0.545983 0.429206 1.96466 0.00915779 3 5 1 3.48561e-06 
1.23049 -0.673079 2.00285e-05 0.0025 0.546382 0.429362 1.9646 0.00915111 4 4 1 -1.38681e-07 
1.23507 -0.673079 2.17486e-05 0.0025 0.546393 0.429332 1.96437 0.00915093 5 4 1 1.43736e-07 
1.23964 -0.67308 2.36843e-05 0.0025 0.546416 0.429331 1.96431 0.00915054 6 4 1 -3.5024e-09 
1.24422 -0.673081 2.48703e-05 0.0025 0.54643 0.429329 1.96424 0.00915031 7 4 1 8.24809e-09 
1.24879 -0.673081 2.39492e-05 0.0025 0.546444 0.429329 1.96419 0.00915007 8 4 1 4.78482e-09 
1.25337 -0.673082 1.92196e-05 0.0025 0.546457 0.429328 1.96414 0.00914985 9 4 1 5.50882e-09 
1.25794 -0.673083 8.56793e-06 0.0025 0.546468 0.429328 1.9641 0.00914966 10 4 1 -2.18926e-09 
1.26252 -0.673084 -1.06654e-05 0.0025 0.54648 0.429328 1.96406 0.00914947 11 4 1 4.80344e-09 
1.26709 -0.673086 -4.167e-05 0.0025 0.54649 0.429328 1.96402 0.00914929 12 4 1 2.95848e-09 
1.27167 -0.673087 -8.77057e-05 0.0025 0.5465 0.429328 1.96399 0.00914913 13 4 1 3.72047e-09 
1.27624 -0.673089 -0.000151012 0.0025 0.546508 0.429328 1.96396 0.00914899 14 4 1 2.31557e-09 
1.28081 -0.673091 -0.000231209 0.0025 0.546516 0.429329 1.96393 0.00914886 15 4 1 -1.33994e-09 
1.28539 -0.673093 -0.000323729 0.0025 0.546524 0.429329 1.96391 0.00914872 16 4 1 5.17808e-09 
1.28996 -0.673097 -0.00041906 0.0025 0.546532 0.42933 1.96388 0.0091486 17 4 1 1.76612e-09 
1.29454 -0.6731 -0.000503514 0.0025 0.546539 0.429331 1.96386 0.00914848 18 4 1 -9.35736e-10 
1.29911 -0.673104 -0.000561685 0.0025 0.546546 0.429332 1.96384 0.00914837 19 4 1 2.89278e-09 
1.30369 -0.673109 -0.000580025 0.0025 0.546552 0.429334 1.96383 0.00914825 20 4 1 1.26386e-09 
1.30826 -0.673113 -0.000550374 0.0025 0.546559 0.429335 1.96381 0.00914815 21 4 1 1.16748e-09 
1.31283 -0.673117 -0.000472193 0.0025 0.546564 0.429336 1.9638 0.00914806 22 4 1 9.1392e-10 
1.31741 -0.673122 -0.000352699 0.0025 0.546569 0.429337 1.96378 0.00914797 23 4 1 -4.15998e-10 
1.32198 -0.673126 -0.000204935 0.0025 0.546574 0.429338 1.96377 0.00914789 24 4 1 1.16647e-09 
1.32656 -0.673129 -4.45352e-05 0.0025 0.546578 0.429339 1.96376 0.00914782 25 4 1 3.98299e-10 
1.33113 -0.673132 0.000113705 0.0025 0.546582 0.429339 1.96374 0.00914776 26 4 1 -6.88609e-10 
1.3357 -0.673134 0.000258421 0.0025 0.546585 0.429338 1.96373 0.00914771 27 4 1 9.34813e-10 
1.34028 -0.673136 0.000382876 0.0025 0.546587 0.429338 1.96372 0.00914767 28 4 1 6.32779e-10 
1.34485 -0.673137 0.000484781 0.0025 0.546589 0.429337 1.96371 0.00914764 29 4 1 -9.4184e-10 
1.34942 -0.673139 0.000565227 0.0025 0.546591 0.429335 1.9637 0.00914761 30 4 1 3.82569e-10 
1.354 -0.67314 0.000627396 0.0025 0.546592 0.429334 1.96369 0.00914759 31 4 1 1.88448e-09 
1.35857 -0.673141 0.000675497 0.0025 0.546593 0.429332 1.96368 0.00914758 32 4 1 -9.11421e-10 
1.36315 -0.673143 0.000714013 0.0025 0.546593 0.429331 1.96367 0.00914757 33 4 1 -8.64445e-10 
1.36772 -0.673144 0.000747055 0.0025 0.546594 0.429329 1.96365 0.00914756 34 4 1 2.09047e-09 
1.37229 -0.673146 0.000777754 0.0025 0.546594 0.429327 1.96364 0.00914755 35 4 1 -2.30098e-10 
1.37687 -0.673148 0.000807879 0.0025 0.546594 0.429325 1.96364 0.00914755 36 4 1 -8.94239e-10 
1.38144 -0.67315 0.000838029 0.0025 0.546594 0.429323 1.96363 0.00914755 37 3 1 1.41821e-09 
1.38602 -0.673152 0.000868381 0.0025 0.546594 0.42932 1.96362 0.00914756 38 4 1 9.45664e-11 
1.39059 -0.673155 0.000899455 0.0025 0.546593 0.429318 1.96361 0.00914757 39 4 1 -7.23454e-10 
1.39516 -0.673158 0.000932276 0.0025 0.546593 0.429316 1.9636 0.00914757 40 4 1 7.23782e-10 
1.39974 -0.673161 0.000967959 0.0025 0.546592 0.429313 1.96359 0.00914759 41 4 1 4.52181e-10 
1.40431 -0.673165 0.00100759 0.0025 0.546591 0.429311 1.96358 0.0091476 42 4 1 -6.203e-10 
1.40888 -0.673169 0.00105314 0.0025 0.54659 0.429308 1.96357 0.00914762 43 4 1 -1.24343e-11 
1.41346 -0.673174 0.00110876 0.0025 0.546589 0.429305 1.96356 0.00914764 44 4 1 9.37328e-10 
1.41803 -0.673179 0.00118054 0.0025 0.546587 0.429302 1.96356 0.00914767 45 4 1 -4.38991e-10 
1.42261 -0.673184 0.00127337 0.0025 0.546586 0.429299 1.96355 0.0091477 46 4 1 -8.40069e-10 
1.42718 -0.67319 0.0013866 0.0025 0.546584 0.429295 1.96354 0.00914773 47 4 1 4.22307e-10 
1.43175 -0.673196 0.0015125 0.0025 0.546581 0.429292 1.96353 0.00914777 48 4 1 7.51019e-11 
1.43633 -0.673202 0.00164061 0.0025 0.546579 0.429288 1.96352 0.00914782 49 4 1 -8.20536e-10 
1.4409 -0.673209 0.00176617 0.0025 0.546576 0.429283 1.96351 0.00914787 50 4 1 -5.07023e-10 
1.44548 -0.673217 0.00189601 0.0025 0.546572 0.429278 1.9635 0.00914792 51 4 1 4.12755e-10 
1.45005 -0.673225 0.00204587 0.0025 0.546568 0.429273 1.96349 0.00914798 52 4 1 -3.63898e-10 
1.45462 -0.673234 0.00222971 0.0025 0.546564 0.429268 1.96348 0.00914806 53 4 1 -1.19494e-09 
1.4592 -0.673244 0.00244832 0.0025 0.54656 0.429262 1.96347 0.00914813 54 4 1 -4.31389e-10 
1.46377 -0.673254 0.00268672 0.0025 0.546555 0.429255 1.96346 0.00914822 55 4 1 1.25699e-10 
1.46835 -0.673265 0.00292361 0.0025 0.546549 0.429248 1.96345 0.00914832 56 4 1 -9.07318e-10 
1.47292 -0.673277 0.00314749 0.0025 0.546542 0.42924 1.96343 0.00914842 57 4 1 -1.28315e-09 
1.47749 -0.67329 0.00336794 0.0025 0.546535 0.429231 1.96342 0.00914854 58 4 1 -7.37434e-11 
1.48207 -0.673305 0.0036129 0.0025 0.546528 0.429222 1.96341 0.00914867 59 4 1 -4.32197e-10 
1.48664 -0.673321 0.00391333 0.0025 0.546519 0.429212 1.96339 0.00914881 60 4 1 -1.29228e-09 
1.49122 -0.673339 0.00428721 0.0025 0.54651 0.429201 1.96337 0.00914896 61 4 1 -1.30193e-09 
1.49579 -0.673358 0.00473465 0.0025 0.5465 0.42919 1.96336 0.00914913 62 4 1 -8.56893e-10 
-0.499634 -0.67338 0.00524436 0.0025 0.546489 0.429177 1.96334 0.00914931 63 4 1 -1.38729e-09 
-0.495059 -0.673403 0.00580116 0.0025 0.546476 0.429162 1.96331 0.00914952 64 4 1 -1.96514e-09 
-0.490485 -0.673429 0.00639095 0.0025 0.546463 0.429146 1.96329 0.00914976 65 4 1 -1.68791e-09 
-0.48591 -0.673458 0.00701092 0.0025 0.546447 0.429128 1.96327 0.00915002 66 4 1 -1.7245e-09 
-0.481335 -0.67349 0.00768637 0.0025 0.54643 0.429109 1.96324 0.0091503 67 4 1 -2.16438e-09 
-0.476759 -0.673527 0.00847642 0.0025 0.546411 0.429087 1.96321 0.00915062 68 4 1 -2.56951e-09 
-0.472184 -0.673567 0.00945038 0.0025 0.54639 0.429064 1.96318 0.00915098 69 4 1 -2.77581e-09 
-0.467608 -0.673612 0.0106418 0.0025 0.546366 0.429037 1.96314 0.00915137 70 4 1 -3.50982e-09 
-0.463033 -0.673662 0.0120121 0.0025 0.546339 0.429007 1.9631 0.00915182 71 4 1 -4.14077e-09 
-0.458457 -0.673717 0.0134628 0.0025 0.546309 0.428973 1.96305 0.00915232 72 4 1 -4.09313e-09 
-0.45388 -0.673779 0.0149122 0.0025 0.546276 0.428936 1.963 0.00915288 73 4 1 -4.13898e-09 
-0.449304 -0.673848 0.0163822 0.0025 0.546239 0.428895 1.96295 0.00915351 74 4 1 -4.40288e-09 
-0.444727 -0.673926 0.0180022 0.0025 0.546198 0.428849 1.96288 0.0091542 75 4 1 -4.68998e-09 
-0.440149 -0.674013 0.0199021 0.0025 0.546153 0.428799 1.96282 0.00915495 76 4 1 -5.10738e-09 
-0.435572 -0.674107 0.0220678 0.0025 0.546103 0.428744 1.96274 0.00915578 77 4 1 -5.42046e-09 
-0.430994 -0.67421 0.0242745 0.0025 0.546049 0.428684 1.96266 0.00915669 78 4 1 -5.17922e-09 
-0.426415 -0.674319 0.0261843 0.0025 0.545991 0.42862 1.96258 0.00915767 79 4 1 -4.00678e-09 
-0.421836 -0.674435 0.027527 0.0025 0.545928 0.428551 1.96249 0.00915871 80 4 1 -2.10059e-09 
-0.417256 -0.674557 0.0282353 0.0025 0.545864 0.42848 1.96239 0.00915978 81 4 1 -4.7251e-11 
-0.412676 -0.674684 0.0284885 0.0025 0.5458 0.428409 1.9623 0.00916086 82 4 1 1.80605e-09 
-0.408095 -0.67481 0.0283264 0.0025 0.545737 0.42834 1.96221 0.00916192 83 4 1 3.95476e-09 
-0.403514 -0.67493 0.0271274 0.0025 0.545677 0.428274 1.96212 0.00916292 84 4 1 7.23995e-09 
-0.398933 -0.675039 0.024483 0.0025 0.545623 0.428214 1.96204 0.00916383 85 4 1 1.0879e-08 
-0.39435 -0.675131 0.0207029 0.0025 0.545578 0.428165 1.96197 0.00916459 86 4 1 1.49906e-08 
-0.389768 -0.675201 0.0148711 0.0025 0.545545 0.428128 1.96193 0.00916514 87 4 1 1.69617e-08 
-0.385185 -0.675242 0.00974113 0.0025 0.545527 0.428108 1.9619 0.00916545 88 5 1 2.53585e-08 
-0.380603 -0.675253 -0.00385535 0.0025 0.545529 0.428111 1.9619 0.00916541 89 4 1 3.65885e-08 
-0.37602 -0.675203 -0.013609 0.0025 0.545562 0.428149 1.96195 0.00916485 90 4 1 8.41072e-08 
-0.371438 -0.675066 -0.0554611 0.0025 0.545667 0.428269 1.96209 0.0091631 91 4 1 2.20723e-07 
-0.366857 -0.674576 -0.17253 0.0025 0.545951 0.428586 1.9625 0.00915833 92 4 1 3.63111e-07 
-0.362279 -0.67349 -0.320178 0.0025 0.546521 0.429213 1.96332 0.00914878 93 4 1 4.0672e-07 
-0.357708 -0.671819 -0.439591 0.0025 0.547397 0.430178 1.96458 0.00913414 94 4 1 4.81873e-07 
-0.353145 -0.66955 -0.60664 0.0025 0.548613 0.431522 1.96632 0.0091139 95 4 1 6.86948e-07 
-0.348594 -0.666396 -0.845617 0.0025 0.550281 0.433365 1.96871 0.00908626 96 4 1 8.91184e-07 
-0.344059 -0.662193 -1.10714 0.0025 0.552487 0.435798 1.97186 0.00904998 97 4 1 9.65027e-07 
-0.339544 -0.656982 -1.31794 0.0025 0.555199 0.43879 1.97573 0.00900578 98 4 1 9.07939e-07 
-0.335053 -0.651058 -1.45545 0.0025 0.558293 0.442211 1.98013 0.00895586 99 4 1 8.02646e-07 
-0.330588 -0.644738 -1.52875 0.0025 0.561633 0.445915 1.98486 0.00890262 100 4 1 7.59814e-07 
-0.32615 -0.638162 -1.59829 0.0025 0.565142 0.44982 1.98981 0.00884734 101 4 1 8.05092e-07 
-0.321741 -0.631323 -1.67966 0.0025 0.568818 0.453923 1.99498 0.00879016 102 4 1 8.79794e-07 
-0.31736 -0.624179 -1.77307 0.0025 0.572678 0.458242 2.00038 0.00873092 103 4 1 9.48926e-07 
-0.31301 -0.616695 -1.86837 0.0025 0.57673 0.462788 2.00603 0.00866956 104 4 1 9.84595e-07 
-0.30869 -0.60892 -1.95105 0.0025 0.580962 0.467546 2.0119 0.00860642 105 4 1 9.66085e-07 
-0.304403 -0.600938 -2.00277 0.0025 0.585326 0.472469 2.01794 0.00854224 106 4 1 9.19341e-07 
-0.300148 -0.592878 -2.03415 0.0025 0.589771 0.477497 2.02405 0.00847787 107 4 1 8.62873e-07 
-0.295925 -0.584796 -2.0422 0.0025 0.594247 0.482576 2.03018 0.00841401 108 4 1 7.98211e-07 
-0.291734 -0.576792 -2.03352 0.0025 0.598713 0.487659 2.03627 0.00835125 109 4 1 7.36348e-07 
-0.287574 -0.568921 -2.011 0.0025 0.603137 0.49271 2.04228 0.00829 110 4 1 6.94929e-07 
-0.283444 -0.561204 -1.99125 0.0025 0.607506 0.497715 2.04818 0.00823037 111 4 1 6.80794e-07 
-0.279343 -0.5536 -1.97979 0.0025 0.611829 0.50268 2.054 0.00817222 112 4 1 6.65777e-07 
-0.275271 -0.54612 -1.96679 0.0025 0.61611 0.507611 2.05974 0.00811543 113 4 1 6.27014e-07 
-0.271228 -0.538761 -1.94015 0.0025 0.620339 0.512495 2.06538 0.0080601 114 4 1 6.07226e-07 
-0.267211 -0.531559 -1.92831 0.0025 0.624518 0.517336 2.07093 0.00800617 115 4 1 6.10563e-07 
-0.263221 -0.524428 -1.92242 0.0025 0.628663 0.522149 2.07642 0.00795339 116 4 1 5.86161e-07 
-0.259258 -0.5174 -1.90298 0.0025 0.632771 0.526931 2.08183 0.00790176 117 4 1 5.65169e-07 
-0.25532 -0.510494 -1.89091 0.0025 0.636838 0.531679 2.08718 0.0078513 118 4 1 5.79807e-07 
-0.251406 -0.503637 -1.89735 0.0025 0.640885 0.536416 2.09247 0.00780171 119 4 1 5.70621e-07 
-0.247518 -0.496833 -1.8863 0.0025 0.644917 0.541146 2.09773 0.00775293 120 4 1 5.56358e-07 
-0.243653 -0.490129 -1.88476 0.0025 0.64893 0.545867 2.10294 0.00770499 121 4 1 5.79089e-07 
-0.239813 -0.483451 -1.89978 0.0025 0.652947 0.550604 2.10813 0.00765759 122 4 1 5.96184e-07 
-0.235996 -0.476757 -1.91527 0.0025 0.656982 0.555374 2.11334 0.00761055 123 4 1 5.97596e-07 
-0.232202 -0.470052 -1.92914 0.0025 0.661039 0.560182 2.11855 0.00756385 124 4 1 6.04403e-07 
-0.228432 -0.463349 -1.94761 0.0025 0.665122 0.565032 2.12377 0.00751742 125 4 1 6.20122e-07 
-0.224685 -0.456621 -1.97182 0.0025 0.669241 0.569937 2.12902 0.00747115 126 4 1 6.51074e-07 
-0.220961 -0.449837 -2.01259 0.0025 0.673413 0.574918 2.13432 0.00742486 127 4 1 6.62518e-07 
-0.21726 -0.442974 -2.04079 0.0025 0.677643 0.579978 2.13967 0.00737852 128 4 1 6.44413e-07 
-0.213582 -0.436094 -2.05774 0.0025 0.68191 0.585097 2.14505 0.00733235 129 4 1 6.26148e-07 
-0.209927 -0.429223 -2.06646 0.0025 0.686198 0.590255 2.15044 0.00728653 130 4 1 6.45536e-07 
-0.206295 -0.42233 -2.1024 0.0025 0.690519 0.595465 2.15584 0.00724093 131 4 1 6.51772e-07 
-0.202686 -0.415397 -2.11805 0.0025 0.694877 0.600732 2.16127 0.00719552 132 4 1 6.06311e-07 
-0.1991 -0.408511 -2.11002 0.0025 0.699238 0.606016 2.16669 0.00715064 133 4 1 6.10992e-07 
-0.195536 -0.401654 -2.13448 0.0025 0.703606 0.611323 2.17209 0.00710625 134 4 1 6.12556e-07 
-0.191994 -0.394799 -2.13611 0.0025 0.707985 0.616655 2.17749 0.00706229 135 4 1 5.82666e-07 
-0.188473 -0.387994 -2.13543 0.0025 0.712358 0.621993 2.18286 0.00701895 136 4 1 5.74537e-07 
-0.184974 -0.381238 -2.13675 0.0025 0.716722 0.627334 2.1882 0.00697621 137 4 1 5.67367e-07 
-0.181497 -0.374527 -2.13696 0.0025 0.721078 0.632679 2.19351 0.00693407 138 4 1 5.6955e-07 
-0.17804 -0.367852 -2.14694 0.0025 0.725433 0.638035 2.1988 0.00689244 139 4 1 5.69665e-07 
-0.174604 -0.361203 -2.15317 0.0025 0.729791 0.643407 2.20407 0.00685128 140 4 1 5.49439e-07 
-0.171189 -0.354585 -2.14886 0.0025 0.734141 0.648782 2.20932 0.00681068 141 4 1 5.39503e-07 
-0.167794 -0.34803 -2.15166 0.0025 0.738481 0.654157 2.21453 0.00677066 142 4 1 5.25192e-07 
-0.164418 -0.34152 -2.14104 0.0025 0.742806 0.659528 2.21971 0.00673123 143 4 1 5.35989e-07 
-0.161062 -0.335047 -2.16148 0.0025 0.747129 0.664909 2.22487 0.00669228 144 4 1 5.44014e-07 
-0.157726 -0.328591 -2.16603 0.0025 0.751461 0.670311 2.23002 0.0066537 145 4 1 5.13088e-07 
-0.154409 -0.322165 -2.15853 0.0025 0.755782 0.675712 2.23514 0.00661566 146 4 1 4.81889e-07 
-0.15111 -0.315848 -2.1377 0.0025 0.760074 0.681091 2.2402 0.00657831 147 4 1 5.09045e-07 
-0.14783 -0.309552 -2.16646 0.0025 0.764363 0.68648 2.24525 0.00654139 148 4 1 5.38115e-07 
-0.144569 -0.303221 -2.18345 0.0025 0.768677 0.691908 2.25031 0.00650468 149 4 1 4.98531e-07 
-0.141326 -0.296935 -2.17141 0.0025 0.772987 0.697344 2.25535 0.00646842 150 4 1 4.67967e-07 
-0.1381 -0.290717 -2.16099 0.0025 0.777271 0.70276 2.26034 0.00643277 151 4 1 4.58279e-07 
-0.134893 -0.284575 -2.14932 0.0025 0.78153 0.708159 2.26529 0.00639771 152 4 1 4.94228e-07 
-0.131703 -0.278443 -2.18431 0.0025 0.785798 0.71358 2.27023 0.00636296 153 4 1 5.05074e-07 
-0.12853 -0.272284 -2.18937 0.0025 0.790086 0.719036 2.27517 0.00632842 154 4 1 4.58409e-07 
-0.125374 -0.26619 -2.17475 0.0025 0.79436 0.724486 2.28009 0.00629437 155 4 1 4.38741e-07 
-0.122235 -0.260167 -2.16513 0.0025 0.798607 0.729916 2.28496 0.0062609 156 4 1 4.43443e-07 
-0.119113 -0.254197 -2.16531 0.0025 0.80284 0.735338 2.28979 0.00622789 157 4 1 4.6883e-07 
-0.116007 -0.248238 -2.1887 0.0025 0.807082 0.740784 2.29462 0.00619516 158 4 1 4.84073e-07 
-0.112918 -0.242241 -2.20836 0.0025 0.811348 0.74627 2.29947 0.00616258 159 4 1 4.41841e-07 
-0.109845 -0.236302 -2.18683 0.0025 0.815606 0.751758 2.30429 0.00613041 160 4 1 4.20828e-07 
-0.106788 -0.23043 -2.18706 0.0025 0.81984 0.757228 2.30906 0.00609875 161 4 1 4.18648e-07 
-0.103746 -0.224622 -2.17347 0.0025 0.824057 0.762687 2.31381 0.00606754 162 4 1 4.37239e-07 
-0.10072 -0.21887 -2.19804 0.0025 0.828277 0.768161 2.31854 0.00603663 163 4 1 4.7326e-07 
-0.0977093 -0.213075 -2.22724 0.0025 0.83253 0.773688 2.32329 0.00600579 164 4 1 4.46806e-07 
-0.0947141 -0.207357 -2.21983 0.0025 0.836796 0.779244 2.32805 0.00597517 165 4 1 4.48239e-07 
-0.0917341 -0.201696 -2.24733 0.0025 0.841074 0.784826 2.3328 0.00594478 166 4 1 4.31244e-07 
-0.0887693 -0.196165 -2.22356 0.0025 0.845355 0.790425 2.33754 0.00591468 167 4 1 4.56407e-07 
-0.0858194 -0.190762 -2.27299 0.0025 0.849659 0.796069 2.3423 0.00588471 168 4 1 5.41493e-07 
-0.0828845 -0.185379 -2.34072 0.0025 0.854056 0.801842 2.34714 0.00585442 169 4 1 5.55662e-07 
-0.0799649 -0.180106 -2.38862 0.0025 0.858549 0.807755 2.35207 0.00582378 170 4 1 5.88498e-07 
-0.0770607 -0.174964 -2.4703 0.0025 0.86315 0.813821 2.3571 0.00579274 171 4 1 5.63567e-07 
-0.0741721 -0.170091 -2.47164 0.0025 0.867829 0.820004 2.3622 0.0057615 172 4 1 5.88683e-07 
-0.0712992 -0.16554 -2.55582 0.0025 0.872595 0.826318 2.36738 0.00573004 173 4 1 7.1167e-07 
-0.0684421 -0.161141 -2.67929 0.0025 0.877534 0.832876 2.37273 0.00569778 174 4 1 7.7007e-07 
-0.0656013 -0.156957 -2.79478 0.0025 0.882674 0.839713 2.37828 0.00566461 175 4 1 8.0862e-07 
-0.0627774 -0.152903 -2.92124 0.0025 0.888008 0.846823 2.38402 0.00563058 176 4 1 7.36902e-07 
-0.0599707 -0.14912 -2.92618 0.0025 0.893453 0.854095 2.38986 0.00559627 177 4 1 6.22442e-07 
-0.0571811 -0.145664 -2.90117 0.0025 0.898898 0.861394 2.39567 0.00556236 178 4 1 6.95545e-07 
-0.0544083 -0.14231 -2.99553 0.0025 0.904398 0.868785 2.40153 0.00552854 179 4 1 7.70171e-07 
-0.0516525 -0.138897 -3.06155 0.0025 0.910012 0.876342 2.40748 0.00549443 180 4 1 7.19989e-07 
-0.0489138 -0.135494 -3.08383 0.0025 0.915689 0.884004 2.41348 0.00546037 181 4 1 7.1758e-07 
-0.0461921 -0.132025 -3.15601 0.0025 0.921404 0.891733 2.41949 0.0054265 182 4 1 5.23993e-07 
-0.0434872 -0.128619 -3.00269 0.0025 0.927003 0.899312 2.42537 0.00539372 183 4 1 1.3717e-07 
-0.0407983 -0.125338 -2.68344 0.0025 0.932178 0.906339 2.43077 0.00536378 184 4 1 -1.06111e-07 
-0.0381234 -0.121197 -2.33851 0.0025 0.936753 0.912571 2.43555 0.00533759 185 4 1 -3.71776e-07 
-0.0354607 -0.1154 -1.81072 0.0025 0.940601 0.917828 2.43955 0.00531575 186 4 1 -4.06363e-07 
-0.0328076 -0.108808 -1.56778 0.0025 0.943834 0.922273 2.44288 0.00529754 187 4 1 3.33982e-07 
-0.0301631 -0.102861 -2.14346 0.0025 0.947132 0.926773 2.44628 0.00527909 188 4 1 1.32693e-07 
-0.0275285 -0.0969855 -1.63993 0.0025 0.950221 0.930936 2.44952 0.00526193 189 4 1 -1.76233e-06 
-0.0249012 -0.0887237 0.456631 0.0025 0.951386 0.932552 2.45074 0.00525549 190 3 1 -1.73567e-06 
-0.022273 -0.0778128 0.867855 0.0025 0.950838 0.931928 2.45009 0.00525852 191 5 1 1.32043e-06 
-0.0196427 -0.0684344 -1.65935 0.0025 0.951647 0.933041 2.45089 0.00525405 192 4 1 2.0084e-06 
-0.017019 -0.0616948 -1.96688 0.0025 0.954234 0.936447 2.45364 0.0052398 193 4 1 -1.6089e-06 
-0.0144028 -0.053472 0.827825 0.0025 0.955144 0.9377 2.45463 0.00523481 194 3 1 -2.20529e-06 
-0.0117842 -0.0416088 1.2709 0.0025 0.953901 0.936136 2.45327 0.00524163 195 4 1 1.16401e-06 
-0.00916121 -0.0316487 -1.02337 0.0025 0.953795 0.935984 2.45313 0.00524222 196 5 1 1.56971e-06 
-0.00654195 -0.0237386 -1.00349 0.0025 0.955152 0.937747 2.4546 0.00523477 197 4 1 -1.01187e-06 
-0.00392644 -0.0152675 0.524862 0.0025 0.95554 0.938297 2.45502 0.00523264 198 3 1 -9.60769e-07 
-0.00130931 -0.0052266 0.441423 0.0025 0.954974 0.937586 2.4544 0.00523574 199 4 1 6.05272e-07 
0.00130931 0.0052266 -0.441423 0.0025 0.954974 0.937586 2.4544 0.00523574 200 4 1 6.05272e-07 
0.00392644 0.0152675 -0.524862 0.0025 0.95554 0.938297 2.45502 0.00523264 201 3 1 -9.60769e-07 
0.00654195 0.0237386 1.00349 0.0025 0.955152 0.937747 2.4546 0.00523477 202 4 1 -1.01187e-06 
0.00916121 0.0316487 1.02337 0.0025 0.953795 0.935984 2.45313 0.00524222 203 5 1 1.56971e-06 
0.0117842 0.0416088 -1.2709 0.0025 0.953901 0.936136 2.45327 0.00524163 204 4 1 1.16401e-06 
0.0144028 0.053472 -0.827825 0.0025 0.955144 0.9377 2.45463 0.00523481 205 3 1 -2.20529e-06 
0.017019 0.0616948 1.96688 0.0025 0.954234 0.936447 2.45364 0.0052398 206 4 1 -1.6089e-06 
0.0196427 0.0684344 1.65935 0.0025 0.951647 0.933041 2.45089 0.00525405 207 4 1 2.0084e-06 
0.022273 0.0778128 -0.867855 0.0025 0.950838 0.931928 2.45009 0.00525852 208 5 1 1.32043e-06 
0.0249012 0.0887237 -0.456631 0.0025 0.951386 0.932552 2.45074 0.00525549 209 3 1 -1.73567e-06 
0.0275285 0.0969855 1.63993 0.0025 0.950221 0.930936 2.44952 0.00526193 210 4 1 -1.76233e-06 
