# Time [s]: 0.428505
# Columns: pos [m], vel [m/s], acc [m/s^2], mass [kg], dens [kg/m^3], pres [Pa], ene [J/kg], sml [m], id, neighbor, alpha, gradh, ...additional?
1.2138 -0.673076 2.38651e-05 0.0025 0.511059 0.432737 2.15252 0.0097836 0 4 1 -0.000134225 
1.21858 -0.673077 2.43362e-05 0.0025 0.536917 0.4262 1.95005 0.00931242 1 4 1 0.000179254 
1.22312 -0.673077 2.453e-05 0.0025 0.548248 0.43087 1.96852 0.00911997 2 3 1 -1.90585e-05 
1.2277 -0.673078 2.48213e-05 0.0025 0.545983 0.429206 1.96466 0.0091578 3 5 1 3.48562e-06 
1.23228 -0.673079 2.56831e-05 0.0025 0.546381 0.429361 1.9646 0.00915112 4 4 1 -1.3868e-07 
1.23685 -0.673079 2.73881e-05 0.0025 0.546393 0.429332 1.96436 0.00915093 5 4 1 1.43736e-07 
1.24143 -0.67308 2.97676e-05 0.0025 0.546416 0.429331 1.96431 0.00915054 6 4 1 -3.50392e-09 
1.24601 -0.673081 3.21337e-05 0.0025 0.546429 0.429329 1.96424 0.00915031 7 4 1 8.24459e-09 
1.25058 -0.673082 3.3343e-05 0.0025 0.546444 0.429328 1.96419 0.00915007 8 4 1 4.77874e-09 
1.25516 -0.673082 3.19022e-05 0.0025 0.546456 0.429328 1.96414 0.00914986 9 4 1 5.49952e-09 
1.25973 -0.673083 2.59857e-05 0.0025 0.546468 0.429328 1.9641 0.00914966 10 4 1 -2.20258e-09 
1.2643 -0.673084 1.33119e-05 0.0025 0.546479 0.429328 1.96406 0.00914947 11 4 1 4.7852e-09 
1.26888 -0.673085 -9.00654e-06 0.0025 0.54649 0.429328 1.96402 0.0091493 12 4 1 2.9348e-09 
1.27345 -0.673087 -4.43563e-05 0.0025 0.546499 0.429328 1.96399 0.00914914 13 4 1 3.69205e-09 
1.27803 -0.673088 -9.59517e-05 0.0025 0.546508 0.429328 1.96396 0.009149 14 4 1 2.28529e-09 
1.2826 -0.67309 -0.000165476 0.0025 0.546516 0.429328 1.96393 0.00914887 15 4 1 -1.36659e-09 
1.28718 -0.673093 -0.00025131 0.0025 0.546524 0.429328 1.96391 0.00914874 16 4 1 5.16252e-09 
1.29175 -0.673096 -0.000347054 0.0025 0.546531 0.429329 1.96388 0.00914862 17 4 1 1.76919e-09 
1.29633 -0.673099 -0.000441198 0.0025 0.546537 0.42933 1.96386 0.0091485 18 4 1 -9.09029e-10 
1.3009 -0.673103 -0.000518565 0.0025 0.546544 0.429331 1.96384 0.00914839 19 4 1 2.94326e-09 
1.30547 -0.673107 -0.000563435 0.0025 0.546551 0.429332 1.96382 0.00914828 20 4 1 1.3324e-09 
1.31005 -0.673112 -0.000563452 0.0025 0.546557 0.429333 1.96381 0.00914817 21 4 1 1.24356e-09 
1.31462 -0.673116 -0.000512981 0.0025 0.546563 0.429335 1.96379 0.00914808 22 4 1 9.84904e-10 
1.3192 -0.673121 -0.000414668 0.0025 0.546568 0.429336 1.96378 0.00914799 23 4 1 -3.61428e-10 
1.32377 -0.673125 -0.000278693 0.0025 0.546573 0.429337 1.96377 0.00914791 24 4 1 1.19744e-09 
1.32834 -0.673129 -0.000120067 0.0025 0.546577 0.429338 1.96375 0.00914784 25 4 1 4.03931e-10 
1.33292 -0.673132 4.4997e-05 0.0025 0.546581 0.429338 1.96374 0.00914778 26 4 1 -7.05037e-10 
1.33749 -0.673135 0.00020244 0.0025 0.546584 0.429338 1.96373 0.00914772 27 4 1 9.02816e-10 
1.34207 -0.673137 0.000342512 0.0025 0.546587 0.429337 1.96372 0.00914768 28 4 1 5.92655e-10 
1.34664 -0.673139 0.000460375 0.0025 0.546589 0.429336 1.96371 0.00914765 29 4 1 -9.83604e-10 
1.35121 -0.67314 0.000555416 0.0025 0.54659 0.429335 1.9637 0.00914762 30 4 1 3.43721e-10 
1.35579 -0.673142 0.000629914 0.0025 0.546592 0.429333 1.96368 0.0091476 31 4 1 1.85115e-09 
1.36036 -0.673143 0.000687748 0.0025 0.546592 0.429332 1.96368 0.00914759 32 4 1 -9.38202e-10 
1.36494 -0.673145 0.000733471 0.0025 0.546593 0.42933 1.96366 0.00914757 33 4 1 -8.84803e-10 
1.36951 -0.673146 0.000771648 0.0025 0.546594 0.429328 1.96365 0.00914756 34 4 1 2.07535e-09 
1.37408 -0.673148 0.000806226 0.0025 0.546594 0.429326 1.96364 0.00914756 35 3 1 -2.42006e-10 
1.37866 -0.67315 0.000839915 0.0025 0.546594 0.429324 1.96363 0.00914756 36 4 1 -9.05132e-10 
1.38323 -0.673152 0.000873946 0.0025 0.546594 0.429322 1.96362 0.00914756 37 4 1 1.40688e-09 
1.3878 -0.673155 0.000908534 0.0025 0.546593 0.429319 1.96362 0.00914757 38 4 1 8.2633e-11 
1.39238 -0.673158 0.000943835 0.0025 0.546593 0.429317 1.96361 0.00914758 39 4 1 -7.35368e-10 
1.39695 -0.673161 0.000980619 0.0025 0.546592 0.429315 1.9636 0.00914759 40 4 1 7.12343e-10 
1.40153 -0.673164 0.0010201 0.0025 0.546591 0.429312 1.96359 0.00914761 41 4 1 4.41216e-10 
1.4061 -0.673168 0.00106337 0.0025 0.54659 0.429309 1.96358 0.00914763 42 4 1 -6.3023e-10 
1.41067 -0.673172 0.0011115 0.0025 0.546589 0.429306 1.96357 0.00914765 43 4 1 -1.90079e-11 
1.41525 -0.673177 0.00116703 0.0025 0.546587 0.429303 1.96356 0.00914767 44 4 1 9.37355e-10 
1.41982 -0.673182 0.00123525 0.0025 0.546586 0.4293 1.96355 0.0091477 45 4 1 -4.3175e-10 
1.42439 -0.673188 0.00132303 0.0025 0.546584 0.429297 1.96355 0.00914773 46 4 1 -8.31142e-10 
1.42897 -0.673194 0.00143438 0.0025 0.546582 0.429293 1.96354 0.00914776 47 4 1 4.22304e-10 
1.43354 -0.6732 0.00156596 0.0025 0.546579 0.429289 1.96353 0.0091478 48 4 1 5.74865e-11 
1.43812 -0.673207 0.00170732 0.0025 0.546576 0.429285 1.96352 0.00914785 49 4 1 -8.5428e-10 
1.44269 -0.673214 0.00184794 0.0025 0.546573 0.429281 1.96351 0.00914791 50 4 1 -5.43654e-10 
1.44726 -0.673222 0.00198676 0.0025 0.54657 0.429276 1.9635 0.00914796 51 4 1 3.89562e-10 
1.45184 -0.673231 0.00213598 0.0025 0.546566 0.42927 1.96349 0.00914803 52 4 1 -3.67853e-10 
1.45641 -0.67324 0.00231442 0.0025 0.546561 0.429264 1.96348 0.00914811 53 4 1 -1.19195e-09 
1.46099 -0.67325 0.00253389 0.0025 0.546556 0.429258 1.96347 0.00914819 54 4 1 -4.45786e-10 
1.46556 -0.673261 0.00278897 0.0025 0.546551 0.429251 1.96345 0.00914828 55 4 1 7.42538e-11 
1.47013 -0.673273 0.00305896 0.0025 0.546545 0.429244 1.96344 0.00914838 56 4 1 -9.95134e-10 
1.47471 -0.673285 0.00332226 0.0025 0.546538 0.429235 1.96343 0.00914849 57 4 1 -1.38424e-09 
1.47928 -0.673299 0.00357411 0.0025 0.546531 0.429226 1.96341 0.00914861 58 4 1 -1.57423e-10 
1.48386 -0.673314 0.00383417 0.0025 0.546523 0.429217 1.9634 0.00914875 59 4 1 -4.81998e-10 
1.48843 -0.673331 0.00413733 0.0025 0.546514 0.429206 1.96338 0.0091489 60 4 1 -1.31766e-09 
1.49301 -0.67335 0.0045141 0.0025 0.546504 0.429195 1.96336 0.00914906 61 4 1 -1.33034e-09 
1.49758 -0.673371 0.00497637 0.0025 0.546494 0.429182 1.96335 0.00914924 62 4 1 -9.15323e-10 
-0.497844 -0.673394 0.00551867 0.0025 0.546482 0.429168 1.96333 0.00914944 63 4 1 -1.49184e-09 
-0.493269 -0.673419 0.00612794 0.0025 0.546468 0.429153 1.9633 0.00914966 64 4 1 -2.12212e-09 
-0.488695 -0.673447 0.00678948 0.0025 0.546454 0.429136 1.96328 0.00914991 65 4 1 -1.89171e-09 
-0.48412 -0.673477 0.00749098 0.0025 0.546437 0.429117 1.96325 0.00915018 66 4 1 -1.94722e-09 
-0.479544 -0.673511 0.00823691 0.0025 0.546419 0.429097 1.96322 0.00915049 67 4 1 -2.35815e-09 
-0.474969 -0.67355 0.00906743 0.0025 0.546398 0.429074 1.96319 0.00915083 68 4 1 -2.69831e-09 
-0.470394 -0.673593 0.0100557 0.0025 0.546376 0.429048 1.96316 0.00915121 69 4 1 -2.85705e-09 
-0.465818 -0.673641 0.0112703 0.0025 0.546351 0.42902 1.96312 0.00915163 70 4 1 -3.62539e-09 
-0.461242 -0.673695 0.0127223 0.0025 0.546322 0.428988 1.96307 0.00915211 71 4 1 -4.39054e-09 
-0.456666 -0.673754 0.0143358 0.0025 0.54629 0.428952 1.96302 0.00915264 72 4 1 -4.50081e-09 
-0.452089 -0.67382 0.0159847 0.0025 0.546254 0.428912 1.96297 0.00915324 73 4 1 -4.58465e-09 
-0.447512 -0.673893 0.0175965 0.0025 0.546215 0.428868 1.96291 0.00915391 74 4 1 -4.67617e-09 
-0.442935 -0.673976 0.0192298 0.0025 0.546171 0.428819 1.96285 0.00915465 75 4 1 -4.64501e-09 
-0.438358 -0.674067 0.0210299 0.0025 0.546123 0.428766 1.96278 0.00915545 76 4 1 -4.78595e-09 
-0.43378 -0.674167 0.0230824 0.0025 0.546071 0.428709 1.9627 0.00915632 77 4 1 -5.02804e-09 
-0.429202 -0.674276 0.025261 0.0025 0.546015 0.428647 1.96262 0.00915726 78 4 1 -4.89019e-09 
-0.424623 -0.67439 0.027215 0.0025 0.545954 0.42858 1.96253 0.00915828 79 4 1 -3.76526e-09 
-0.420043 -0.674509 0.028549 0.0025 0.54589 0.428509 1.96243 0.00915935 80 4 1 -1.60428e-09 
-0.415463 -0.674633 0.0289941 0.0025 0.545825 0.428437 1.96234 0.00916045 81 4 1 1.15848e-09 
-0.410883 -0.67476 0.0285494 0.0025 0.54576 0.428366 1.96224 0.00916153 82 4 1 3.90112e-09 
-0.406302 -0.674884 0.0275381 0.0025 0.545699 0.428298 1.96215 0.00916257 83 4 1 6.2372e-09 
-0.40172 -0.675 0.025813 0.0025 0.545642 0.428235 1.96207 0.00916352 84 4 1 9.22497e-09 
-0.397138 -0.675101 0.0223104 0.0025 0.545593 0.428181 1.962 0.00916434 85 4 1 1.33967e-08 
-0.392556 -0.675183 0.0176518 0.0025 0.545555 0.428139 1.96194 0.00916498 86 4 1 1.62482e-08 
-0.387973 -0.675235 0.0112672 0.0025 0.54553 0.428112 1.9619 0.0091654 87 4 1 2.07535e-08 
-0.38339 -0.675262 0.00348234 0.0025 0.545523 0.428104 1.96189 0.00916552 88 5 1 3.02974e-08 
-0.378808 -0.675233 -0.00934804 0.0025 0.545541 0.428124 1.96192 0.00916522 89 4 1 5.53435e-08 
-0.374225 -0.675151 -0.0291667 0.0025 0.545606 0.4282 1.96201 0.00916412 90 4 1 1.62064e-07 
-0.369644 -0.674838 -0.121294 0.0025 0.545805 0.428424 1.96229 0.00916078 91 4 1 3.18502e-07 
-0.365064 -0.673995 -0.264004 0.0025 0.546258 0.428924 1.96294 0.00915318 92 4 1 3.95857e-07 
-0.36049 -0.672538 -0.394188 0.0025 0.547015 0.429757 1.96403 0.00914051 93 4 1 4.39524e-07 
-0.355924 -0.670535 -0.531812 0.0025 0.54809 0.430945 1.96557 0.00912258 94 4 1 6.03508e-07 
-0.351368 -0.667751 -0.751579 0.0025 0.549574 0.432584 1.9677 0.00909795 95 4 1 8.28853e-07 
-0.346826 -0.66393 -1.01109 0.0025 0.551578 0.434795 1.97056 0.0090649 96 4 1 9.64179e-07 
-0.342303 -0.659048 -1.25478 0.0025 0.554119 0.437597 1.97419 0.00902334 97 4 1 9.51155e-07 
-0.337803 -0.653339 -1.41814 0.0025 0.5571 0.440891 1.97843 0.00897505 98 4 1 8.41987e-07 
-0.333328 -0.647113 -1.51018 0.0025 0.560373 0.444516 1.98308 0.00892263 99 4 1 7.71353e-07 
-0.32888 -0.64061 -1.57772 0.0025 0.563836 0.448366 1.98797 0.00886783 100 4 1 7.90776e-07 
-0.32446 -0.633839 -1.65593 0.0025 0.567465 0.452412 1.99308 0.00881112 101 4 1 8.63841e-07 
-0.320069 -0.626769 -1.74818 0.0025 0.571275 0.456672 1.99842 0.00875235 102 4 1 9.43097e-07 
-0.315707 -0.619365 -1.84845 0.0025 0.575284 0.461164 2.00402 0.00869136 103 4 1 9.88896e-07 
-0.311377 -0.611638 -1.93548 0.0025 0.579482 0.465881 2.00985 0.0086284 104 4 1 9.88758e-07 
-0.307079 -0.603664 -2.00146 0.0025 0.583833 0.470783 2.01588 0.0085641 105 4 1 9.46061e-07 
-0.302813 -0.59557 -2.03536 0.0025 0.588281 0.47581 2.02201 0.00849934 106 4 1 8.95033e-07 
-0.298579 -0.587438 -2.05694 0.0025 0.592778 0.480908 2.02818 0.00843485 107 4 1 8.31003e-07 
-0.294378 -0.579357 -2.04917 0.0025 0.59728 0.486026 2.03432 0.00837129 108 4 1 7.59601e-07 
-0.290208 -0.571391 -2.0298 0.0025 0.601744 0.491119 2.04039 0.00830918 109 4 1 7.13736e-07 
-0.286069 -0.563581 -2.00801 0.0025 0.606156 0.496167 2.04636 0.00824871 110 4 1 6.95639e-07 
-0.281959 -0.555904 -1.99714 0.0025 0.610519 0.501174 2.05224 0.00818975 111 4 1 6.76175e-07 
-0.277879 -0.548337 -1.98007 0.0025 0.614838 0.506144 2.05803 0.00813222 112 4 1 6.46487e-07 
-0.273827 -0.540897 -1.96201 0.0025 0.619108 0.511071 2.06374 0.00807614 113 4 1 6.15735e-07 
-0.269803 -0.533612 -1.93756 0.0025 0.623323 0.51595 2.06935 0.00802152 114 4 1 6.16518e-07 
-0.265805 -0.526419 -1.9381 0.0025 0.6275 0.520797 2.07488 0.00796813 115 4 1 6.04725e-07 
-0.261834 -0.519321 -1.91942 0.0025 0.631643 0.525617 2.08035 0.00791586 116 4 1 5.71652e-07 
-0.257889 -0.512346 -1.90248 0.0025 0.635743 0.5304 2.08574 0.00786482 117 4 1 5.83692e-07 
-0.253969 -0.505446 -1.908 0.0025 0.639818 0.535166 2.09108 0.00781472 118 4 1 5.83465e-07 
-0.250074 -0.498585 -1.90174 0.0025 0.643879 0.539927 2.09638 0.00776543 119 4 1 5.56599e-07 
-0.246204 -0.491819 -1.88889 0.0025 0.647915 0.544672 2.10162 0.00771706 120 4 1 5.7538e-07 
-0.242357 -0.485093 -1.9053 0.0025 0.651947 0.549424 2.10684 0.00766934 121 4 1 6.07866e-07 
-0.238535 -0.478366 -1.92524 0.0025 0.656001 0.554214 2.11207 0.00762194 122 4 1 6.0843e-07 
-0.234735 -0.471634 -1.93883 0.0025 0.66008 0.559043 2.11732 0.00757484 123 4 1 6.04358e-07 
-0.23096 -0.464896 -1.95151 0.0025 0.664179 0.563911 2.12257 0.00752809 124 4 1 6.21558e-07 
-0.227207 -0.458134 -1.97774 0.0025 0.668311 0.568829 2.12784 0.00748154 125 4 1 6.53856e-07 
-0.223478 -0.451325 -2.01488 0.0025 0.672496 0.573822 2.13316 0.00743499 126 4 1 6.72843e-07 
-0.219772 -0.444433 -2.05087 0.0025 0.67674 0.578898 2.13853 0.00738836 127 4 1 6.55562e-07 
-0.21609 -0.437517 -2.06483 0.0025 0.681027 0.584037 2.14394 0.00734186 128 4 1 6.34283e-07 
-0.21243 -0.430599 -2.07747 0.0025 0.685336 0.589217 2.14935 0.0072957 129 4 1 6.51134e-07 
-0.208794 -0.423678 -2.10812 0.0025 0.689677 0.594449 2.15479 0.00724977 130 4 1 6.60349e-07 
-0.20518 -0.4167 -2.1298 0.0025 0.694056 0.599738 2.16025 0.00720403 131 4 1 6.2249e-07 
-0.20159 -0.409759 -2.12427 0.0025 0.698444 0.605053 2.16571 0.00715877 132 4 1 6.13958e-07 
-0.198021 -0.402866 -2.14109 0.0025 0.702836 0.610387 2.17114 0.00711404 133 4 1 6.2217e-07 
-0.194476 -0.395953 -2.15152 0.0025 0.707241 0.615748 2.17657 0.00706973 134 4 1 5.97561e-07 
-0.190952 -0.389105 -2.14903 0.0025 0.711643 0.62112 2.18198 0.00702599 135 4 1 5.80326e-07 
-0.18745 -0.3823 -2.14899 0.0025 0.716035 0.626494 2.18736 0.0069829 136 4 1 5.75267e-07 
-0.183969 -0.37554 -2.15053 0.0025 0.720419 0.63187 2.19271 0.0069404 137 4 1 5.7642e-07 
-0.180509 -0.36882 -2.15824 0.0025 0.724801 0.637257 2.19803 0.00689844 138 4 1 5.75622e-07 
-0.17707 -0.36212 -2.16506 0.0025 0.729185 0.64266 2.20334 0.00685697 139 4 1 5.63223e-07 
-0.173652 -0.35546 -2.16637 0.0025 0.733566 0.648071 2.20862 0.00681602 140 4 1 5.4415e-07 
-0.170254 -0.34886 -2.16044 0.0025 0.737933 0.653479 2.21387 0.00677568 141 4 1 5.33422e-07 
-0.166876 -0.342299 -2.15907 0.0025 0.742287 0.658883 2.21909 0.00673594 142 4 1 5.43848e-07 
-0.163518 -0.335794 -2.1712 0.0025 0.746639 0.664297 2.22428 0.00669668 143 4 1 5.45071e-07 
-0.16018 -0.329277 -2.17766 0.0025 0.750995 0.669729 2.22946 0.00665784 144 4 1 5.24876e-07 
-0.15686 -0.322817 -2.17391 0.0025 0.755343 0.675163 2.23462 0.00661951 145 4 1 4.88609e-07 
-0.15356 -0.316446 -2.14923 0.0025 0.759662 0.680575 2.23972 0.00658187 146 4 1 5.14346e-07 
-0.150278 -0.310116 -2.1801 0.0025 0.763978 0.685995 2.2448 0.00654469 147 4 1 5.47735e-07 
-0.147015 -0.303744 -2.19805 0.0025 0.76832 0.691459 2.2499 0.0065077 148 4 1 5.04516e-07 
-0.143771 -0.297414 -2.18439 0.0025 0.772658 0.696929 2.25497 0.00647117 149 4 1 4.73056e-07 
-0.140544 -0.29116 -2.17385 0.0025 0.776968 0.702378 2.25999 0.00643527 150 4 1 4.66919e-07 
-0.137335 -0.284973 -2.16487 0.0025 0.781256 0.707812 2.26497 0.00639995 151 4 1 4.98725e-07 
-0.134144 -0.278806 -2.19545 0.0025 0.785551 0.713266 2.26994 0.00636496 152 4 1 5.10227e-07 
-0.13097 -0.2726 -2.20384 0.0025 0.789865 0.718754 2.27492 0.00633019 153 4 1 4.64513e-07 
-0.127814 -0.266469 -2.18656 0.0025 0.794165 0.724237 2.27987 0.00629592 154 4 1 4.42392e-07 
-0.124674 -0.260408 -2.17717 0.0025 0.798436 0.729697 2.28476 0.00626224 155 4 1 4.50549e-07 
-0.121551 -0.254398 -2.17892 0.0025 0.802694 0.735152 2.28963 0.00622902 156 4 1 4.76653e-07 
-0.118445 -0.248396 -2.20348 0.0025 0.806964 0.740633 2.29449 0.00619606 157 4 1 4.90404e-07 
-0.115355 -0.242366 -2.22261 0.0025 0.811258 0.746154 2.29937 0.00616327 158 4 1 4.43713e-07 
-0.112282 -0.236384 -2.19782 0.0025 0.81554 0.751673 2.30421 0.00613091 159 4 1 4.20712e-07 
-0.109224 -0.230479 -2.1964 0.0025 0.819795 0.757169 2.30901 0.00609909 160 4 1 4.21372e-07 
-0.106183 -0.224622 -2.18341 0.0025 0.82403 0.762652 2.31378 0.00606774 161 4 1 4.37893e-07 
-0.103157 -0.218814 -2.20546 0.0025 0.828266 0.768147 2.31853 0.00603671 162 4 1 4.72238e-07 
-0.100146 -0.212967 -2.23426 0.0025 0.832531 0.773689 2.3233 0.00600578 163 4 1 4.36453e-07 
-0.0971508 -0.207173 -2.21647 0.0025 0.836799 0.779247 2.32805 0.00597515 164 4 1 4.25309e-07 
-0.0941708 -0.201436 -2.23192 0.0025 0.841059 0.784805 2.33279 0.00594489 165 4 1 4.05809e-07 
-0.0912059 -0.195786 -2.19968 0.0025 0.845302 0.790356 2.33749 0.00591504 166 4 1 4.31553e-07 
-0.0882557 -0.190247 -2.24347 0.0025 0.849554 0.79593 2.34218 0.00588544 167 4 1 5.05368e-07 
-0.0853204 -0.184683 -2.29519 0.0025 0.853876 0.801604 2.34694 0.00585565 168 4 1 5.009e-07 
-0.0824 -0.179184 -2.32323 0.0025 0.858261 0.807373 2.35175 0.00582574 169 4 1 5.06423e-07 
-0.0794946 -0.173778 -2.36644 0.0025 0.862701 0.813225 2.35661 0.00579575 170 4 1 4.66586e-07 
-0.0766042 -0.168565 -2.34177 0.0025 0.867165 0.819124 2.36148 0.00576591 171 4 1 5.06394e-07 
-0.0737287 -0.163624 -2.41657 0.0025 0.871681 0.825106 2.36639 0.00573604 172 4 1 6.34248e-07 
-0.0708682 -0.158779 -2.52654 0.0025 0.876349 0.8313 2.37145 0.00570549 173 4 1 6.84318e-07 
-0.0680231 -0.154102 -2.62757 0.0025 0.881193 0.837741 2.37669 0.00567413 174 4 1 7.27858e-07 
-0.065194 -0.149566 -2.74806 0.0025 0.886219 0.844435 2.3821 0.00564195 175 4 1 6.67629e-07 
-0.0623811 -0.145349 -2.74896 0.0025 0.891355 0.851292 2.38761 0.00560944 176 4 1 6.29478e-07 
-0.0595845 -0.141534 -2.7981 0.0025 0.896554 0.858255 2.39317 0.00557691 177 4 1 7.65344e-07 
-0.0568042 -0.137908 -2.94488 0.0025 0.901909 0.865442 2.39888 0.0055438 178 4 1 8.08889e-07 
-0.0540407 -0.134293 -3.02309 0.0025 0.907441 0.872879 2.40476 0.00551 179 4 1 7.60464e-07 
-0.0512941 -0.130742 -3.08294 0.0025 0.913082 0.880485 2.41073 0.00547596 180 4 1 7.46682e-07 
-0.0485646 -0.127194 -3.13531 0.0025 0.918794 0.888199 2.41675 0.00544192 181 4 1 5.50547e-07 
-0.0458522 -0.123831 -2.976 0.0025 0.924421 0.895819 2.42266 0.00540879 182 4 1 4.47835e-07 
-0.0431558 -0.120808 -2.93051 0.0025 0.929895 0.903262 2.42838 0.00537695 183 4 1 6.85327e-07 
-0.0404752 -0.117584 -3.11989 0.0025 0.935415 0.910775 2.43414 0.00534522 184 4 1 5.68555e-07 
-0.0378105 -0.113902 -2.9976 0.0025 0.940889 0.918223 2.43984 0.00531412 185 4 1 -7.65842e-08 
-0.035161 -0.109777 -2.44914 0.0025 0.945784 0.924904 2.44491 0.00528662 186 4 1 -4.86933e-07 
-0.0325239 -0.104527 -1.90784 0.0025 0.949789 0.9304 2.44906 0.00526433 187 4 1 -5.29846e-07 
-0.0298966 -0.0979956 -1.48459 0.0025 0.953012 0.934842 2.45236 0.00524652 188 4 1 -7.8473e-08 
-0.0272774 -0.0920028 -1.70811 0.0025 0.955976 0.938917 2.45538 0.00523026 189 4 1 3.39576e-07 
-0.0246664 -0.0867634 -1.86505 0.0025 0.958986 0.943017 2.4585 0.00521384 190 4 1 -6.95882e-07 
-0.0220635 -0.0790913 -0.593646 0.0025 0.961032 0.945812 2.46065 0.00520274 191 4 1 -1.88965e-06 
-0.0194636 -0.0676057 0.892901 0.0025 0.961162 0.946069 2.46075 0.00520204 192 3 1 -2.46975e-07 
-0.0168615 -0.0576474 -0.416452 0.0025 0.96115 0.946113 2.46065 0.0052021 193 5 1 1.98238e-06 
-0.0142615 -0.0513649 -2.03495 0.0025 0.962962 0.948521 2.46254 0.00519231 194 4 1 5.50491e-09 
-0.0116691 -0.0441411 -0.286197 0.0025 0.9646 0.950717 2.46433 0.00518349 195 3 1 -2.34548e-06 
-0.00907803 -0.0322489 1.47244 0.0025 0.96393 0.949892 2.46361 0.0051871 196 4 1 -3.39161e-07 
-0.00648204 -0.0218924 0.069584 0.0025 0.963004 0.948676 2.46257 0.00519208 197 5 1 1.90291e-06 
-0.00388595 -0.0142403 -1.30775 0.0025 0.963866 0.949804 2.46349 0.00518744 198 4 1 4.71293e-07 
-0.00129459 -0.00532407 -0.588828 0.0025 0.965151 0.951533 2.46489 0.00518053 199 3 1 -1.29128e-06 
0.00129459 0.00532407 0.588828 0.0025 0.965151 0.951533 2.46489 0.00518053 200 3 1 -1.29128e-06 
0.00388595 0.0142403 1.30775 0.0025 0.963866 0.949804 2.46349 0.00518744 201 4 1 4.71293e-07 
0.00648204 0.0218924 -0.069584 0.0025 0.963004 0.948676 2.46257 0.00519208 202 5 1 1.90291e-06 
0.00907803 0.0322489 -1.47244 0.0025 0.96393 0.949892 2.46361 0.0051871 203 4 1 -3.39161e-07 
0.0116691 0.0441411 0.286197 0.0025 0.9646 0.950717 2.46433 0.00518349 204 3 1 -2.34548e-06 
0.0142615 0.0513649 2.03495 0.0025 0.962962 0.948521 2.46254 0.00519231 205 4 1 5.50491e-09 
0.0168615 0.0576474 0.416452 0.0025 0.96115 0.946113 2.46065 0.0052021 206 5 1 1.98238e-06 
0.0194636 0.0676057 -0.892901 0.0025 0.961162 0.946069 2.46075 0.00520204 207 3 1 -2.46975e-07 
0.0220635 0.0790913 0.593646 0.0025 0.961032 0.945812 2.46065 0.00520274 208 4 1 -1.88965e-06 
0.0246664 0.0867634 1.86505 0.0025 0.958986 0.943017 2.4585 0.00521384 209 4 1 -6.95882e-07 
0.0272774 0.0920028 1.70811 0.0025 0.955976 0.938917 2.45538 0.00523026 210 4 1 3.39576e-07 
