# Time [s]: 0.43589
# Columns: pos [m], vel [m/s], acc [m/s^2], mass [kg], dens [kg/m^3], pres [Pa], ene [J/kg], sml [m], id, neighbor, alpha, gradh, ...additional?
1.20883 -0.673076 9.34897e-06 0.0025 0.51106 0.432737 2.15252 0.0097836 0 4 1 -0.000134225 
1.21361 -0.673077 8.93597e-06 0.0025 0.536918 0.4262 1.95005 0.00931242 1 4 1 0.000179254 
1.21815 -0.673077 8.87269e-06 0.0025 0.548248 0.430871 1.96852 0.00911996 2 3 1 -1.90585e-05 
1.22273 -0.673078 9.38551e-06 0.0025 0.545983 0.429207 1.96466 0.00915779 3 5 1 3.48561e-06 
1.22731 -0.673078 1.04124e-05 0.0025 0.546382 0.429362 1.9646 0.00915111 4 4 1 -1.3868e-07 
1.23188 -0.673079 1.14208e-05 0.0025 0.546393 0.429333 1.96437 0.00915092 5 4 1 1.43739e-07 
1.23646 -0.67308 1.14268e-05 0.0025 0.546416 0.429332 1.96431 0.00915053 6 4 1 -3.49666e-09 
1.24103 -0.673081 9.05388e-06 0.0025 0.54643 0.429329 1.96424 0.0091503 7 4 1 8.2583e-09 
1.24561 -0.673081 2.5495e-06 0.0025 0.546445 0.429329 1.96419 0.00915006 8 4 1 4.80062e-09 
1.25018 -0.673082 -1.02813e-05 0.0025 0.546457 0.429329 1.96415 0.00914985 9 4 1 5.53157e-09 
1.25476 -0.673083 -3.21527e-05 0.0025 0.546469 0.429329 1.9641 0.00914965 10 4 1 -2.15812e-09 
1.25933 -0.673084 -6.61776e-05 0.0025 0.546481 0.429329 1.96406 0.00914946 11 4 1 4.84375e-09 
1.26391 -0.673086 -0.000115307 0.0025 0.546491 0.429329 1.96403 0.00914928 12 4 1 3.00675e-09 
1.26848 -0.673088 -0.000181214 0.0025 0.546501 0.429329 1.96399 0.00914912 13 4 1 3.77199e-09 
1.27306 -0.67309 -0.000262811 0.0025 0.546509 0.42933 1.96396 0.00914897 14 4 1 2.36145e-09 
1.27763 -0.673092 -0.000354915 0.0025 0.546518 0.42933 1.96394 0.00914883 15 4 1 -1.31189e-09 
1.28221 -0.673095 -0.000447796 0.0025 0.546526 0.429331 1.96391 0.00914869 16 4 1 5.17569e-09 
1.28678 -0.673099 -0.000528134 0.0025 0.546534 0.429332 1.96389 0.00914857 17 4 1 1.72443e-09 
1.29136 -0.673103 -0.000581472 0.0025 0.546541 0.429334 1.96387 0.00914845 18 4 1 -1.01791e-09 
1.29593 -0.673107 -0.000595537 0.0025 0.546548 0.429335 1.96385 0.00914832 19 4 1 2.77846e-09 
1.3005 -0.673111 -0.000563381 0.0025 0.546555 0.429336 1.96383 0.00914821 20 4 1 1.13405e-09 
1.30508 -0.673116 -0.000485239 0.0025 0.546561 0.429338 1.96381 0.00914811 21 4 1 1.04307e-09 
1.30965 -0.673119 -0.000368463 0.0025 0.546567 0.429339 1.9638 0.00914802 22 4 1 8.14495e-10 
1.31423 -0.673123 -0.000225631 0.0025 0.546572 0.42934 1.96379 0.00914793 23 4 1 -4.77018e-10 
1.3188 -0.673126 -7.15287e-05 0.0025 0.546576 0.42934 1.96377 0.00914786 24 4 1 1.14848e-09 
1.32337 -0.673129 7.99681e-05 0.0025 0.54658 0.42934 1.96376 0.00914779 25 4 1 4.19339e-10 
1.32795 -0.673131 0.000218224 0.0025 0.546583 0.42934 1.96375 0.00914774 26 4 1 -6.38548e-10 
1.33252 -0.673133 0.0003369 0.0025 0.546586 0.42934 1.96373 0.00914769 27 4 1 1.00151e-09 
1.33709 -0.673134 0.000433787 0.0025 0.546588 0.429339 1.96372 0.00914766 28 4 1 7.04627e-10 
1.34167 -0.673135 0.00050986 0.0025 0.54659 0.429338 1.96371 0.00914763 29 4 1 -8.73446e-10 
1.34624 -0.673136 0.000568103 0.0025 0.546591 0.429336 1.9637 0.0091476 30 4 1 4.42234e-10 
1.35082 -0.673137 0.000612508 0.0025 0.546593 0.429335 1.96369 0.00914758 31 4 1 1.933e-09 
1.35539 -0.673138 0.000647293 0.0025 0.546594 0.429333 1.96368 0.00914757 32 4 1 -8.74203e-10 
1.35996 -0.67314 0.000676256 0.0025 0.546594 0.429331 1.96367 0.00914755 33 4 1 -8.36777e-10 
1.36454 -0.673141 0.000702228 0.0025 0.546595 0.42933 1.96366 0.00914754 34 4 1 2.11177e-09 
1.36911 -0.673143 0.000726825 0.0025 0.546595 0.429328 1.96365 0.00914754 35 4 1 -2.11561e-10 
1.37369 -0.673144 0.000750686 0.0025 0.546595 0.429326 1.96364 0.00914753 36 4 1 -8.75819e-10 
1.37826 -0.673146 0.000774119 0.0025 0.546596 0.429324 1.96363 0.00914753 37 3 1 1.43732e-09 
1.38283 -0.673149 0.000797687 0.0025 0.546595 0.429322 1.96362 0.00914753 38 4 1 1.13767e-10 
1.38741 -0.673151 0.000822309 0.0025 0.546595 0.42932 1.96361 0.00914754 39 4 1 -7.04942e-10 
1.39198 -0.673154 0.000849054 0.0025 0.546595 0.429318 1.9636 0.00914755 40 4 1 7.41189e-10 
1.39655 -0.673157 0.00087925 0.0025 0.546594 0.429315 1.96359 0.00914756 41 4 1 4.67255e-10 
1.40113 -0.673161 0.00091529 0.0025 0.546593 0.429313 1.96359 0.00914757 42 4 1 -6.11034e-10 
1.4057 -0.673165 0.000961386 0.0025 0.546593 0.429311 1.96358 0.00914758 43 4 1 -1.35244e-11 
1.41028 -0.673169 0.00102278 0.0025 0.546592 0.429308 1.96357 0.0091476 44 4 1 9.2506e-10 
1.41485 -0.673173 0.00110282 0.0025 0.54659 0.429305 1.96356 0.00914762 45 4 1 -4.54596e-10 
1.41942 -0.673178 0.00119972 0.0025 0.546589 0.429302 1.96355 0.00914765 46 4 1 -8.43588e-10 
1.424 -0.673183 0.00130616 0.0025 0.546587 0.429299 1.96354 0.00914768 47 4 1 4.44303e-10 
1.42857 -0.673189 0.00141374 0.0025 0.546585 0.429295 1.96354 0.00914771 48 4 1 1.21984e-10 
1.43314 -0.673195 0.00151975 0.0025 0.546582 0.429292 1.96353 0.00914776 49 4 1 -7.66905e-10 
1.43772 -0.673201 0.00163106 0.0025 0.546579 0.429288 1.96352 0.0091478 50 4 1 -4.7099e-10 
1.44229 -0.673208 0.0017607 0.0025 0.546577 0.429283 1.96351 0.00914785 51 4 1 4.20363e-10 
1.44687 -0.673216 0.00191858 0.0025 0.546573 0.429278 1.9635 0.00914791 52 4 1 -3.69317e-10 
1.45144 -0.673224 0.00210292 0.0025 0.546569 0.429273 1.96349 0.00914797 53 4 1 -1.17826e-09 
1.45601 -0.673232 0.00229944 0.0025 0.546565 0.429268 1.96348 0.00914804 54 4 1 -3.6134e-10 
1.46059 -0.673242 0.00249047 0.0025 0.54656 0.429261 1.96347 0.00914812 55 4 1 2.52069e-10 
1.46516 -0.673252 0.00266818 0.0025 0.546555 0.429255 1.96346 0.00914821 56 4 1 -7.56037e-10 
1.46974 -0.673263 0.00284258 0.0025 0.546549 0.429247 1.96344 0.00914831 57 4 1 -1.15353e-09 
1.47431 -0.673275 0.00303779 0.0025 0.546543 0.42924 1.96343 0.00914841 58 4 1 4.44579e-12 
1.47888 -0.673288 0.00327902 0.0025 0.546536 0.429231 1.96342 0.00914853 59 4 1 -3.97843e-10 
1.48346 -0.673303 0.00357997 0.0025 0.546529 0.429222 1.9634 0.00914865 60 4 1 -1.26326e-09 
1.48803 -0.673319 0.00393917 0.0025 0.54652 0.429213 1.96339 0.00914879 61 4 1 -1.23371e-09 
1.49261 -0.673337 0.0043446 0.0025 0.546511 0.429202 1.96337 0.00914894 62 4 1 -7.18601e-10 
1.49718 -0.673356 0.0047804 0.0025 0.546501 0.42919 1.96335 0.00914911 63 4 1 -1.1666e-09 
-0.498243 -0.673377 0.00523368 0.0025 0.54649 0.429177 1.96333 0.0091493 64 4 1 -1.67197e-09 
-0.493668 -0.673401 0.00570545 0.0025 0.546477 0.429162 1.96331 0.00914951 65 4 1 -1.3646e-09 
-0.489093 -0.673427 0.00622295 0.0025 0.546463 0.429146 1.96329 0.00914974 66 4 1 -1.44051e-09 
-0.484518 -0.673456 0.00683934 0.0025 0.546448 0.429129 1.96327 0.00915 67 4 1 -1.97257e-09 
-0.479943 -0.673489 0.00760947 0.0025 0.546431 0.42911 1.96324 0.00915028 68 4 1 -2.44572e-09 
-0.475368 -0.673525 0.00855199 0.0025 0.546413 0.429089 1.96321 0.00915059 69 4 1 -2.5993e-09 
-0.470793 -0.673564 0.00962662 0.0025 0.546391 0.429065 1.96318 0.00915095 70 4 1 -3.12775e-09 
-0.466217 -0.673608 0.0107565 0.0025 0.546367 0.429038 1.96314 0.00915135 71 4 1 -3.4999e-09 
-0.461641 -0.673658 0.0118956 0.0025 0.546341 0.429008 1.9631 0.0091518 72 4 1 -3.33946e-09 
-0.457065 -0.673713 0.013091 0.0025 0.546311 0.428975 1.96305 0.0091523 73 4 1 -3.5605e-09 
-0.452489 -0.673775 0.0144713 0.0025 0.546278 0.428938 1.963 0.00915285 74 4 1 -4.21783e-09 
-0.447913 -0.673845 0.0161522 0.0025 0.546242 0.428897 1.96295 0.00915346 75 4 1 -4.85574e-09 
-0.443336 -0.673923 0.0181248 0.0025 0.546201 0.428852 1.96289 0.00915414 76 4 1 -5.33528e-09 
-0.438758 -0.674007 0.0202216 0.0025 0.546156 0.428802 1.96282 0.0091549 77 4 1 -5.43208e-09 
-0.434181 -0.6741 0.0222067 0.0025 0.546106 0.428747 1.96275 0.00915573 78 4 1 -5.01791e-09 
-0.429603 -0.6742 0.023927 0.0025 0.546052 0.428687 1.96267 0.00915664 79 4 1 -4.12741e-09 
-0.425024 -0.67431 0.0254094 0.0025 0.545994 0.428623 1.96258 0.00915761 80 4 1 -3.15376e-09 
-0.420445 -0.674427 0.0267934 0.0025 0.545934 0.428556 1.96249 0.00915862 81 4 1 -2.33105e-09 
-0.415865 -0.67455 0.0280241 0.0025 0.545871 0.428487 1.9624 0.00915968 82 4 1 -1.12913e-09 
-0.411285 -0.674675 0.02868 0.0025 0.545807 0.428417 1.96231 0.00916075 83 4 1 1.03049e-09 
-0.406705 -0.674798 0.0284262 0.0025 0.545744 0.428347 1.96222 0.00916181 84 4 1 3.87079e-09 
-0.402124 -0.674916 0.0271786 0.0025 0.545684 0.428281 1.96213 0.00916282 85 4 1 7.19202e-09 
-0.397542 -0.675024 0.0245337 0.0025 0.545629 0.428221 1.96205 0.00916373 86 4 1 1.10217e-08 
-0.39296 -0.675116 0.020463 0.0025 0.545584 0.428171 1.96198 0.00916449 87 4 1 1.52754e-08 
-0.388377 -0.675187 0.0146942 0.0025 0.545551 0.428135 1.96193 0.00916504 88 4 1 1.71526e-08 
-0.383795 -0.675231 0.00900232 0.0025 0.545533 0.428114 1.9619 0.00916535 89 5 1 2.45394e-08 
-0.379212 -0.675249 -0.0026158 0.0025 0.545535 0.428117 1.96191 0.00916532 90 4 1 3.53511e-08 
-0.374629 -0.675198 -0.013691 0.0025 0.545566 0.428153 1.96195 0.00916479 91 4 1 7.64552e-08 
-0.370047 -0.675068 -0.0498607 0.0025 0.545663 0.428263 1.96209 0.00916317 92 4 1 2.01847e-07 
-0.365466 -0.674625 -0.156962 0.0025 0.545924 0.428556 1.96246 0.00915878 93 4 1 3.52662e-07 
-0.360889 -0.67359 -0.307418 0.0025 0.546464 0.429151 1.96324 0.00914973 94 4 1 4.09416e-07 
-0.356317 -0.671963 -0.431001 0.0025 0.547314 0.430086 1.96446 0.00913552 95 4 1 4.7134e-07 
-0.351753 -0.669763 -0.590513 0.0025 0.548498 0.431394 1.96615 0.0091158 96 4 1 6.4912e-07 
-0.347201 -0.666728 -0.812161 0.0025 0.550112 0.433176 1.96847 0.00908907 97 4 1 8.52535e-07 
-0.342664 -0.662658 -1.07048 0.0025 0.552243 0.435528 1.97151 0.00905398 98 4 1 9.52174e-07 
-0.338147 -0.657585 -1.28874 0.0025 0.554884 0.438442 1.97528 0.00901089 99 4 1 9.11968e-07 
-0.333653 -0.651759 -1.43502 0.0025 0.557923 0.441801 1.9796 0.00896181 100 4 1 8.07249e-07 
-0.329185 -0.645512 -1.51357 0.0025 0.56122 0.445456 1.98427 0.00890917 101 4 1 7.4647e-07 
-0.324744 -0.639012 -1.5772 0.0025 0.564686 0.449312 1.98917 0.00885447 102 4 1 7.73543e-07 
-0.32033 -0.632263 -1.65142 0.0025 0.568309 0.453353 1.99426 0.00879804 103 4 1 8.48009e-07 
-0.315946 -0.62523 -1.74203 0.0025 0.572105 0.4576 1.99958 0.00873966 104 4 1 9.19718e-07 
-0.311591 -0.617876 -1.83444 0.0025 0.576088 0.462066 2.00514 0.00867922 105 4 1 9.61916e-07 
-0.307266 -0.610229 -1.91997 0.0025 0.580251 0.466745 2.01092 0.00861697 106 4 1 9.4957e-07 
-0.302973 -0.602355 -1.97294 0.0025 0.584551 0.471593 2.01687 0.00855358 107 4 1 9.07949e-07 
-0.298713 -0.594384 -2.00861 0.0025 0.588937 0.476552 2.02291 0.00848987 108 4 1 8.58898e-07 
-0.294483 -0.586387 -2.02137 0.0025 0.593365 0.481573 2.02898 0.00842652 109 4 1 7.95267e-07 
-0.290286 -0.578445 -2.01557 0.0025 0.59779 0.486607 2.03502 0.00836414 110 4 1 7.32065e-07 
-0.286119 -0.570618 -1.99519 0.0025 0.602178 0.491615 2.04098 0.00830319 111 4 1 6.88683e-07 
-0.281983 -0.562951 -1.97547 0.0025 0.606515 0.496579 2.04685 0.00824381 112 4 1 6.68365e-07 
-0.277875 -0.555403 -1.96043 0.0025 0.610804 0.501501 2.05262 0.00818594 113 4 1 6.59487e-07 
-0.273797 -0.547975 -1.95287 0.0025 0.615052 0.506391 2.05832 0.00812939 114 4 1 6.25945e-07 
-0.269746 -0.540655 -1.92729 0.0025 0.619253 0.51124 2.06393 0.00807424 115 4 1 5.94026e-07 
-0.265722 -0.533489 -1.9093 0.0025 0.623401 0.51604 2.06945 0.00802052 116 4 1 5.97983e-07 
-0.261725 -0.526413 -1.90499 0.0025 0.627511 0.52081 2.0749 0.00796799 117 4 1 5.84735e-07 
-0.257754 -0.519415 -1.88998 0.0025 0.631588 0.525552 2.08028 0.00791655 118 4 1 5.56848e-07 
-0.253809 -0.512543 -1.87296 0.0025 0.635625 0.530262 2.08559 0.00786628 119 4 1 5.69299e-07 
-0.249888 -0.505755 -1.88107 0.0025 0.63964 0.534957 2.09084 0.0078169 120 4 1 5.6952e-07 
-0.245992 -0.499003 -1.87436 0.0025 0.643643 0.539649 2.09607 0.00776829 121 4 1 5.41314e-07 
-0.242119 -0.492331 -1.86265 0.0025 0.647621 0.544326 2.10124 0.00772056 122 4 1 5.52469e-07 
-0.238271 -0.485708 -1.87237 0.0025 0.65159 0.549003 2.10638 0.00767353 123 4 1 5.82072e-07 
-0.234446 -0.479088 -1.89142 0.0025 0.655577 0.553711 2.11153 0.00762687 124 4 1 5.89216e-07 
-0.230644 -0.472453 -1.90578 0.0025 0.659586 0.558458 2.11668 0.00758051 125 4 1 5.90079e-07 
-0.226865 -0.465817 -1.92179 0.0025 0.663619 0.563245 2.12185 0.00753444 126 4 1 5.96967e-07 
-0.223109 -0.459165 -1.93923 0.0025 0.66768 0.568077 2.12703 0.00748861 127 4 1 6.23703e-07 
-0.219377 -0.452481 -1.97519 0.0025 0.671786 0.572974 2.13226 0.00744285 128 4 1 6.47075e-07 
-0.215667 -0.445717 -2.00834 0.0025 0.675949 0.57795 2.13753 0.00739701 129 4 1 6.44228e-07 
-0.211979 -0.438908 -2.03402 0.0025 0.68016 0.582996 2.14285 0.00735122 130 4 1 6.18131e-07 
-0.208315 -0.432101 -2.03835 0.0025 0.684396 0.588085 2.14817 0.00730572 131 4 1 6.16195e-07 
-0.204674 -0.425303 -2.06208 0.0025 0.688654 0.593215 2.15351 0.00726054 132 4 1 6.45328e-07 
-0.201055 -0.418457 -2.09578 0.0025 0.692953 0.598405 2.15888 0.00721549 133 4 1 6.12051e-07 
-0.197458 -0.411615 -2.08742 0.0025 0.697269 0.603628 2.16425 0.00717083 134 4 1 5.89078e-07 
-0.193884 -0.404827 -2.10005 0.0025 0.701584 0.608865 2.16959 0.00712673 135 4 1 6.02299e-07 
-0.190331 -0.398039 -2.11267 0.0025 0.705911 0.614128 2.17494 0.00708304 136 4 1 5.84542e-07 
-0.186801 -0.391281 -2.11329 0.0025 0.710241 0.619407 2.18026 0.00703987 137 4 1 5.68148e-07 
-0.183291 -0.384575 -2.1149 0.0025 0.714564 0.624691 2.18556 0.00699728 138 4 1 5.56477e-07 
-0.179803 -0.377915 -2.11192 0.0025 0.718876 0.629976 2.19083 0.0069553 139 4 1 5.52802e-07 
-0.176336 -0.371294 -2.11733 0.0025 0.723182 0.635265 2.19606 0.00691389 140 4 1 5.59224e-07 
-0.172889 -0.364708 -2.12679 0.0025 0.72749 0.640569 2.20129 0.00687294 141 4 1 5.47534e-07 
-0.169463 -0.358134 -2.12625 0.0025 0.731797 0.645884 2.20649 0.0068325 142 4 1 5.38941e-07 
-0.166057 -0.351623 -2.13241 0.0025 0.736098 0.651205 2.21167 0.00679257 143 4 1 5.1993e-07 
-0.16267 -0.345154 -2.12012 0.0025 0.740386 0.656521 2.21681 0.00675323 144 4 1 5.16157e-07 
-0.159303 -0.338742 -2.12904 0.0025 0.744663 0.661837 2.22192 0.00671445 145 4 1 5.26612e-07 
-0.155956 -0.332353 -2.13512 0.0025 0.748942 0.667168 2.22702 0.00667609 146 4 1 5.25898e-07 
-0.152627 -0.325967 -2.14823 0.0025 0.753225 0.672514 2.23211 0.00663812 147 4 1 4.89691e-07 
-0.149318 -0.319644 -2.1227 0.0025 0.75749 0.677851 2.23716 0.00660074 148 4 1 4.68763e-07 
-0.146027 -0.313416 -2.12002 0.0025 0.761727 0.683167 2.24215 0.00656403 149 4 1 5.14431e-07 
-0.142754 -0.307177 -2.15109 0.0025 0.765976 0.688508 2.24715 0.00652762 150 4 1 5.15775e-07 
-0.139499 -0.300925 -2.15465 0.0025 0.770243 0.693882 2.25214 0.00649146 151 4 1 4.83296e-07 
-0.136262 -0.294727 -2.15178 0.0025 0.774502 0.699258 2.25712 0.00645577 152 4 1 4.51306e-07 
-0.133043 -0.288594 -2.12898 0.0025 0.778733 0.704612 2.26204 0.00642069 153 4 1 4.52259e-07 
-0.129841 -0.282543 -2.13565 0.0025 0.782945 0.709954 2.26692 0.00638615 154 4 1 4.93554e-07 
-0.126657 -0.276469 -2.16455 0.0025 0.787173 0.715328 2.27181 0.00635184 155 4 1 4.83558e-07 
-0.123489 -0.270395 -2.16354 0.0025 0.791415 0.720728 2.2767 0.0063178 156 4 1 4.42799e-07 
-0.120339 -0.264382 -2.14991 0.0025 0.795637 0.726118 2.28155 0.00628427 157 4 1 4.30487e-07 
-0.117205 -0.258437 -2.14298 0.0025 0.799837 0.731489 2.28636 0.00625128 158 4 1 4.34198e-07 
-0.114088 -0.252549 -2.14179 0.0025 0.804023 0.736856 2.29114 0.00621872 159 4 1 4.73376e-07 
-0.110986 -0.246659 -2.18113 0.0025 0.808231 0.742261 2.29593 0.00618635 160 4 1 4.76025e-07 
-0.107901 -0.240751 -2.18439 0.0025 0.812465 0.747708 2.30073 0.00615411 161 4 1 4.36475e-07 
-0.104832 -0.234921 -2.17821 0.0025 0.816692 0.75316 2.30551 0.00612226 162 4 1 4.33963e-07 
-0.101779 -0.229154 -2.1822 0.0025 0.820912 0.758614 2.31027 0.00609079 163 4 1 4.28687e-07 
-0.0987414 -0.223499 -2.17524 0.0025 0.825127 0.764075 2.31501 0.00605967 164 4 1 4.82009e-07 
-0.0957193 -0.217904 -2.2352 0.0025 0.829382 0.769597 2.31977 0.00602859 165 4 1 5.09088e-07 
-0.0927128 -0.212328 -2.25486 0.0025 0.833697 0.775209 2.3246 0.00599738 166 4 1 5.06773e-07 
-0.0897218 -0.206889 -2.29752 0.0025 0.838066 0.780903 2.32946 0.00596612 167 4 1 5.32088e-07 
-0.0867466 -0.201553 -2.33395 0.0025 0.842501 0.786694 2.33438 0.00593471 168 4 1 5.28512e-07 
-0.0837871 -0.196459 -2.35906 0.0025 0.846997 0.79258 2.33936 0.00590321 169 4 1 6.09556e-07 
-0.0808434 -0.191584 -2.46424 0.0025 0.851607 0.798629 2.34444 0.00587125 170 4 1 6.86912e-07 
-0.0779158 -0.18684 -2.55353 0.0025 0.856384 0.804907 2.34969 0.0058385 171 4 1 7.28947e-07 
-0.0750048 -0.182333 -2.6677 0.0025 0.861335 0.811431 2.35512 0.00580494 172 4 1 7.69252e-07 
-0.0721108 -0.17801 -2.76609 0.0025 0.866464 0.818201 2.36072 0.00577058 173 4 1 7.10515e-07 
-0.0692342 -0.174035 -2.78527 0.0025 0.871703 0.825134 2.36642 0.0057359 174 4 1 7.28715e-07 
-0.0663749 -0.170361 -2.87831 0.0025 0.877041 0.832217 2.3722 0.00570099 175 4 1 7.63743e-07 
-0.0635331 -0.166795 -2.92756 0.0025 0.882494 0.83947 2.37809 0.00566576 176 4 1 7.60695e-07 
-0.060709 -0.16329 -3.00019 0.0025 0.888045 0.846872 2.38406 0.00563035 177 4 1 7.81442e-07 
-0.0579027 -0.15978 -3.06241 0.0025 0.89369 0.854414 2.39012 0.00559478 178 4 1 6.74532e-07 
-0.0551142 -0.156336 -3.01378 0.0025 0.899337 0.861978 2.39615 0.00555965 179 4 1 5.64489e-07 
-0.052343 -0.153135 -2.97298 0.0025 0.904902 0.869454 2.40206 0.00552546 180 4 1 5.88276e-07 
-0.0495887 -0.149988 -3.0107 0.0025 0.910401 0.876853 2.40789 0.00549208 181 4 1 3.67129e-07 
-0.0468509 -0.146393 -2.78669 0.0025 0.915662 0.883936 2.41346 0.00546053 182 4 1 -2.12248e-07 
-0.0441281 -0.141826 -2.20648 0.0025 0.92024 0.890124 2.41829 0.00543337 183 4 1 -5.07409e-07 
-0.0414175 -0.135812 -1.73778 0.0025 0.923978 0.89521 2.42221 0.00541138 184 4 1 -1.80105e-07 
-0.0387167 -0.129255 -1.7644 0.0025 0.927295 0.899723 2.42566 0.00539203 185 4 1 2.85066e-07 
-0.0360254 -0.123772 -2.00825 0.0025 0.930613 0.9042 2.42913 0.0053728 186 4 1 -3.17755e-07 
-0.0333439 -0.117966 -1.19365 0.0025 0.933307 0.907825 2.43198 0.0053573 187 4 1 -1.68559e-06 
-0.0306681 -0.108421 0.441987 0.0025 0.934198 0.909084 2.43292 0.00535219 188 3 1 -1.09443e-06 
-0.0279917 -0.0969726 0.264804 0.0025 0.934079 0.909015 2.43272 0.00535287 189 5 1 1.47182e-06 
-0.0253153 -0.0887145 -1.81161 0.0025 0.935405 0.910784 2.43407 0.00534528 190 4 1 1.26286e-06 
-0.0226464 -0.0825741 -1.40195 0.0025 0.937722 0.913829 2.43658 0.00533207 191 4 1 -1.96367e-06 
-0.0199832 -0.0728264 1.12313 0.0025 0.93805 0.914315 2.43695 0.00533021 192 3 1 -1.71783e-06 
-0.0173162 -0.060987 0.984819 0.0025 0.936796 0.912731 2.43554 0.00533734 193 5 1 1.76548e-06 
-0.0146458 -0.0519323 -1.48996 0.0025 0.937217 0.913271 2.43597 0.00533494 194 4 1 1.37143e-06 
-0.0119812 -0.0438448 -0.907843 0.0025 0.938881 0.915448 2.43779 0.00532549 195 4 1 -1.33359e-06 
-0.00932036 -0.0340152 0.472119 0.0025 0.939281 0.916021 2.43822 0.00532322 196 3 1 -1.00092e-06 
-0.00665803 -0.0238789 0.535379 0.0025 0.938685 0.915264 2.43755 0.0053266 197 4 1 5.62767e-07 
-0.00399376 -0.0142774 -0.378938 0.0025 0.938577 0.915118 2.43744 0.00532721 198 5 1 5.90711e-07 
-0.00133081 -0.00463943 -0.364104 0.0025 0.939043 0.915714 2.43796 0.00532457 199 3 1 -4.94159e-07 
0.00133081 0.00463943 0.364104 0.0025 0.939043 0.915714 2.43796 0.00532457 200 3 1 -4.94159e-07 
0.00399376 0.0142774 0.378938 0.0025 0.938577 0.915118 2.43744 0.00532721 201 5 1 5.90711e-07 
0.00665803 0.0238789 -0.535379 0.0025 0.938685 0.915264 2.43755 0.0053266 202 4 1 5.62767e-07 
0.00932036 0.0340152 -0.472119 0.0025 0.939281 0.916021 2.43822 0.00532322 203 3 1 -1.00092e-06 
0.0119812 0.0438448 0.907843 0.0025 0.938881 0.915448 2.43779 0.00532549 204 4 1 -1.33359e-06 
0.0146458 0.0519323 1.48996 0.0025 0.937217 0.913271 2.43597 0.00533494 205 4 1 1.37143e-06 
0.0173162 0.060987 -0.984819 0.0025 0.936796 0.912731 2.43554 0.00533734 206 5 1 1.76548e-06 
0.0199832 0.0728264 -1.12313 0.0025 0.93805 0.914315 2.43695 0.00533021 207 3 1 -1.71783e-06 
0.0226464 0.0825741 1.40195 0.0025 0.937722 0.913829 2.43658 0.00533207 208 4 1 -1.96367e-06 
0.0253153 0.0887145 1.81161 0.0025 0.935405 0.910784 2.43407 0.00534528 209 4 1 1.26286e-06 
0.0279917 0.0969726 -0.264804 0.0025 0.934079 0.909015 2.43272 0.00535287 210 5 1 1.47182e-06 
