# Time [s]: 0.437259
# Columns: pos [m], vel [m/s], acc [m/s^2], mass [kg], dens [kg/m^3], pres [Pa], ene [J/kg], sml [m], id, neighbor, alpha, gradh, ...additional?
1.20791 -0.673076 6.64916e-06 0.0025 0.51106 0.432737 2.15252 0.00978359 0 4 1 -0.000134225 
1.21269 -0.673077 6.20143e-06 0.0025 0.536918 0.4262 1.95005 0.00931242 1 4 1 0.000179254 
1.21723 -0.673077 6.17845e-06 0.0025 0.548248 0.430871 1.96852 0.00911996 2 3 1 -1.90585e-05 
1.22181 -0.673078 6.71515e-06 0.0025 0.545983 0.429207 1.96466 0.00915779 3 5 1 3.48561e-06 
1.22639 -0.673078 7.60491e-06 0.0025 0.546382 0.429362 1.9646 0.00915111 4 4 1 -1.3868e-07 
1.23096 -0.673079 8.16709e-06 0.0025 0.546393 0.429333 1.96437 0.00915092 5 4 1 1.4374e-07 
1.23554 -0.67308 7.29142e-06 0.0025 0.546417 0.429332 1.96431 0.00915053 6 4 1 -3.49412e-09 
1.24011 -0.673081 3.48504e-06 0.0025 0.54643 0.429329 1.96424 0.0091503 7 4 1 8.26237e-09 
1.24469 -0.673081 -5.13987e-06 0.0025 0.546445 0.429329 1.96419 0.00915006 8 4 1 4.80659e-09 
1.24926 -0.673082 -2.09437e-05 0.0025 0.546457 0.429329 1.96415 0.00914984 9 4 1 5.53984e-09 
1.25384 -0.673083 -4.67836e-05 0.0025 0.546469 0.429329 1.96411 0.00914965 10 4 1 -2.14726e-09 
1.25841 -0.673085 -8.57596e-05 0.0025 0.546481 0.429329 1.96406 0.00914945 11 4 1 4.85701e-09 
1.26299 -0.673086 -0.000140475 0.0025 0.546492 0.429329 1.96403 0.00914927 12 4 1 3.02133e-09 
1.26756 -0.673088 -0.000211784 0.0025 0.546501 0.42933 1.96399 0.00914911 13 4 1 3.78567e-09 
1.27214 -0.67309 -0.000297333 0.0025 0.54651 0.42933 1.96396 0.00914897 14 4 1 2.37099e-09 
1.27671 -0.673093 -0.000390484 0.0025 0.546518 0.429331 1.96394 0.00914882 15 4 1 -1.31009e-09 
1.28129 -0.673096 -0.000480294 0.0025 0.546527 0.429332 1.96391 0.00914868 16 4 1 5.16687e-09 
1.28586 -0.6731 -0.000552974 0.0025 0.546534 0.429333 1.96389 0.00914856 17 4 1 1.70403e-09 
1.29043 -0.673104 -0.000594646 0.0025 0.546542 0.429334 1.96387 0.00914843 18 4 1 -1.04829e-09 
1.29501 -0.673108 -0.00059465 0.0025 0.546549 0.429336 1.96385 0.00914831 19 4 1 2.74223e-09 
1.29958 -0.673112 -0.000548307 0.0025 0.546556 0.429337 1.96383 0.0091482 20 4 1 1.09761e-09 
1.30416 -0.673116 -0.000458164 0.0025 0.546562 0.429338 1.96382 0.0091481 21 4 1 1.01218e-09 
1.30873 -0.67312 -0.000333328 0.0025 0.546567 0.42934 1.9638 0.00914801 22 4 1 7.93535e-10 
1.3133 -0.673123 -0.000187182 0.0025 0.546572 0.42934 1.96379 0.00914792 23 4 1 -4.8598e-10 
1.31788 -0.673126 -3.4303e-05 0.0025 0.546576 0.429341 1.96377 0.00914785 24 4 1 1.1511e-09 
1.32245 -0.673129 0.000112425 0.0025 0.54658 0.429341 1.96376 0.00914779 25 4 1 4.31175e-10 
1.32703 -0.673131 0.000243736 0.0025 0.546583 0.42934 1.96375 0.00914774 26 4 1 -6.20854e-10 
1.3316 -0.673132 0.000354631 0.0025 0.546586 0.42934 1.96373 0.00914769 27 4 1 1.02169e-09 
1.33617 -0.673133 0.00044395 0.0025 0.546588 0.429339 1.96372 0.00914765 28 4 1 7.24557e-10 
1.34075 -0.673134 0.000513332 0.0025 0.54659 0.429338 1.96371 0.00914762 29 4 1 -8.55578e-10 
1.34532 -0.673135 0.000566096 0.0025 0.546592 0.429336 1.9637 0.0091476 30 4 1 4.57083e-10 
1.34989 -0.673136 0.000606311 0.0025 0.546593 0.429335 1.96369 0.00914758 31 4 1 1.94458e-09 
1.35447 -0.673137 0.000638061 0.0025 0.546594 0.429333 1.96368 0.00914756 32 4 1 -8.65568e-10 
1.35904 -0.673139 0.00066483 0.0025 0.546594 0.429332 1.96367 0.00914755 33 4 1 -8.30294e-10 
1.36362 -0.67314 0.000689035 0.0025 0.546595 0.42933 1.96366 0.00914754 34 4 1 2.1171e-09 
1.36819 -0.673142 0.000711933 0.0025 0.546596 0.429328 1.96365 0.00914753 35 4 1 -2.06541e-10 
1.37276 -0.673143 0.000734012 0.0025 0.546596 0.429326 1.96364 0.00914753 36 4 1 -8.70716e-10 
1.37734 -0.673145 0.00075563 0.0025 0.546596 0.429324 1.96363 0.00914753 37 3 1 1.44246e-09 
1.38191 -0.673147 0.000777454 0.0025 0.546596 0.429322 1.96362 0.00914753 38 4 1 1.18751e-10 
1.38649 -0.67315 0.000800444 0.0025 0.546595 0.42932 1.96361 0.00914753 39 4 1 -7.00259e-10 
1.39106 -0.673153 0.000825716 0.0025 0.546595 0.429318 1.9636 0.00914754 40 4 1 7.4528e-10 
1.39563 -0.673156 0.00085489 0.0025 0.546595 0.429316 1.96359 0.00914755 41 4 1 4.69922e-10 
1.40021 -0.673159 0.000890931 0.0025 0.546594 0.429314 1.96359 0.00914756 42 4 1 -6.11023e-10 
1.40478 -0.673163 0.000938454 0.0025 0.546593 0.429311 1.96358 0.00914757 43 4 1 -1.67077e-11 
1.40935 -0.673167 0.00100222 0.0025 0.546592 0.429309 1.96357 0.00914759 44 4 1 9.20236e-10 
1.41393 -0.673172 0.00108399 0.0025 0.546591 0.429306 1.96356 0.00914761 45 4 1 -4.57261e-10 
1.4185 -0.673177 0.00118006 0.0025 0.546589 0.429303 1.96355 0.00914764 46 4 1 -8.4011e-10 
1.42308 -0.673182 0.00128246 0.0025 0.546588 0.4293 1.96355 0.00914766 47 4 1 4.54841e-10 
1.42765 -0.673187 0.00138434 0.0025 0.546586 0.429296 1.96354 0.0091477 48 4 1 1.35756e-10 
1.43222 -0.673193 0.00148604 0.0025 0.546583 0.429293 1.96353 0.00914774 49 4 1 -7.56394e-10 
1.4368 -0.673199 0.00159661 0.0025 0.546581 0.429289 1.96352 0.00914778 50 4 1 -4.67928e-10 
1.44137 -0.673206 0.00172839 0.0025 0.546578 0.429284 1.96351 0.00914783 51 4 1 4.18284e-10 
1.44594 -0.673213 0.00188758 0.0025 0.546574 0.42928 1.9635 0.00914789 52 4 1 -3.68082e-10 
1.45052 -0.673221 0.00206803 0.0025 0.546571 0.429275 1.96349 0.00914795 53 4 1 -1.1645e-09 
1.45509 -0.673229 0.00225375 0.0025 0.546566 0.429269 1.96348 0.00914802 54 4 1 -3.32004e-10 
1.45967 -0.673238 0.00242964 0.0025 0.546562 0.429263 1.96347 0.0091481 55 4 1 2.90681e-10 
1.46424 -0.673248 0.00259341 0.0025 0.546557 0.429257 1.96346 0.00914818 56 4 1 -7.20327e-10 
1.46881 -0.673259 0.00275978 0.0025 0.546551 0.429249 1.96345 0.00914828 57 4 1 -1.13066e-09 
1.47339 -0.673271 0.00295353 0.0025 0.546545 0.429242 1.96343 0.00914838 58 4 1 1.3557e-11 
1.47796 -0.673284 0.00319613 0.0025 0.546538 0.429234 1.96342 0.00914849 59 4 1 -3.94075e-10 
1.48254 -0.673298 0.00349594 0.0025 0.546531 0.429225 1.96341 0.00914861 60 4 1 -1.25268e-09 
1.48711 -0.673314 0.00384743 0.0025 0.546523 0.429216 1.96339 0.00914874 61 4 1 -1.20645e-09 
1.49169 -0.673331 0.00423672 0.0025 0.546514 0.429205 1.96338 0.00914889 62 4 1 -6.69702e-10 
1.49626 -0.67335 0.00464807 0.0025 0.546504 0.429193 1.96336 0.00914906 63 4 1 -1.09723e-09 
-0.499165 -0.67337 0.00507196 0.0025 0.546493 0.429181 1.96334 0.00914924 64 4 1 -1.59175e-09 
-0.49459 -0.673393 0.00551685 0.0025 0.546481 0.429167 1.96332 0.00914945 65 4 1 -1.29129e-09 
-0.490015 -0.673418 0.00601818 0.0025 0.546468 0.429151 1.9633 0.00914967 66 4 1 -1.39048e-09 
-0.48544 -0.673447 0.00663037 0.0025 0.546453 0.429135 1.96327 0.00914991 67 4 1 -1.94469e-09 
-0.480865 -0.673478 0.00739731 0.0025 0.546437 0.429116 1.96325 0.00915019 68 4 1 -2.41246e-09 
-0.47629 -0.673513 0.00831816 0.0025 0.546419 0.429095 1.96322 0.00915049 69 4 1 -2.51858e-09 
-0.471715 -0.673551 0.00933865 0.0025 0.546398 0.429072 1.96318 0.00915084 70 4 1 -2.97514e-09 
-0.467139 -0.673594 0.0103893 0.0025 0.546375 0.429046 1.96315 0.00915123 71 4 1 -3.29936e-09 
-0.462564 -0.673642 0.011454 0.0025 0.546349 0.429017 1.96311 0.00915166 72 4 1 -3.15932e-09 
-0.457988 -0.673695 0.0126112 0.0025 0.54632 0.428985 1.96307 0.00915214 73 4 1 -3.46511e-09 
-0.453411 -0.673756 0.0139938 0.0025 0.546289 0.42895 1.96302 0.00915267 74 4 1 -4.21123e-09 
-0.448835 -0.673824 0.0156859 0.0025 0.546253 0.42891 1.96296 0.00915326 75 4 1 -4.86997e-09 
-0.444258 -0.673898 0.0176343 0.0025 0.546214 0.428867 1.96291 0.00915392 76 4 1 -5.28468e-09 
-0.439681 -0.67398 0.0196547 0.0025 0.54617 0.428818 1.96284 0.00915466 77 4 1 -5.29864e-09 
-0.435103 -0.67407 0.021547 0.0025 0.546122 0.428764 1.96277 0.00915547 78 4 1 -4.89655e-09 
-0.430525 -0.674168 0.0232331 0.0025 0.546069 0.428706 1.96269 0.00915635 79 4 1 -4.18633e-09 
-0.425947 -0.674275 0.0248023 0.0025 0.546012 0.428643 1.96261 0.0091573 80 4 1 -3.50552e-09 
-0.421368 -0.674391 0.026365 0.0025 0.545953 0.428578 1.96252 0.0091583 81 4 1 -2.89453e-09 
-0.416789 -0.674512 0.0277618 0.0025 0.545891 0.428509 1.96243 0.00915934 82 4 1 -1.73909e-09 
-0.412209 -0.674636 0.0285852 0.0025 0.545827 0.428439 1.96234 0.00916041 83 4 1 3.34064e-10 
-0.407628 -0.674759 0.0286029 0.0025 0.545764 0.428369 1.96224 0.00916147 84 4 1 3.00305e-09 
-0.403047 -0.674879 0.0276468 0.0025 0.545702 0.428301 1.96215 0.0091625 85 4 1 6.2671e-09 
-0.398466 -0.67499 0.0253299 0.0025 0.545646 0.428239 1.96207 0.00916345 86 4 1 9.98646e-09 
-0.393884 -0.675087 0.0216874 0.0025 0.545598 0.428186 1.962 0.00916426 87 4 1 1.40762e-08 
-0.389302 -0.675166 0.0164298 0.0025 0.545561 0.428146 1.96195 0.00916487 88 4 1 1.69977e-08 
-0.384719 -0.675218 0.00988562 0.0025 0.545539 0.428121 1.96191 0.00916525 89 4 1 2.03508e-08 
-0.380136 -0.675248 0.00349056 0.0025 0.545533 0.428115 1.9619 0.00916535 90 5 1 3.1581e-08 
-0.375554 -0.675215 -0.0117739 0.0025 0.545554 0.428139 1.96193 0.009165 91 4 1 5.72823e-08 
-0.370971 -0.675123 -0.0321124 0.0025 0.545624 0.428218 1.96203 0.00916383 92 4 1 1.50504e-07 
-0.36639 -0.67481 -0.113584 0.0025 0.545818 0.428438 1.96231 0.00916056 93 4 1 3.13252e-07 
-0.361811 -0.67398 -0.262215 0.0025 0.546262 0.428928 1.96295 0.00915312 94 4 1 4.02917e-07 
-0.357237 -0.672528 -0.394313 0.0025 0.547016 0.429758 1.96403 0.0091405 95 4 1 4.38944e-07 
-0.35267 -0.670531 -0.532333 0.0025 0.548088 0.430941 1.96557 0.00912262 96 4 1 5.77391e-07 
-0.348114 -0.667785 -0.733371 0.0025 0.54955 0.432556 1.96766 0.00909835 97 4 1 7.91059e-07 
-0.343572 -0.664066 -0.987143 0.0025 0.551508 0.434717 1.97046 0.00906605 98 4 1 9.31478e-07 
-0.339048 -0.659304 -1.22206 0.0025 0.553988 0.437453 1.974 0.00902546 99 4 1 9.3546e-07 
-0.334546 -0.653697 -1.39543 0.0025 0.55691 0.44068 1.97816 0.00897812 100 4 1 8.39551e-07 
-0.33007 -0.647567 -1.4895 0.0025 0.560131 0.444248 1.98273 0.00892648 101 4 1 7.5089e-07 
-0.32562 -0.641154 -1.55221 0.0025 0.56354 0.448036 1.98755 0.00887248 102 4 1 7.52939e-07 
-0.321197 -0.634503 -1.62189 0.0025 0.567102 0.452006 1.99257 0.00881675 103 4 1 8.16356e-07 
-0.316803 -0.62759 -1.70606 0.0025 0.570829 0.456172 1.99779 0.00875918 104 4 1 8.9199e-07 
-0.312438 -0.620362 -1.79901 0.0025 0.574739 0.460552 2.00326 0.00869959 105 4 1 9.45662e-07 
-0.308103 -0.612834 -1.88693 0.0025 0.578832 0.465149 2.00895 0.00863808 106 4 1 9.52642e-07 
-0.3038 -0.605042 -1.9524 0.0025 0.583078 0.469931 2.01483 0.00857518 107 4 1 9.19742e-07 
-0.299528 -0.597123 -1.99285 0.0025 0.587428 0.474844 2.02083 0.00851168 108 4 1 8.70827e-07 
-0.295288 -0.589148 -2.01276 0.0025 0.591833 0.479835 2.02688 0.00844833 109 4 1 8.12301e-07 
-0.29108 -0.581203 -2.01297 0.0025 0.59625 0.484853 2.03292 0.00838575 110 4 1 7.51123e-07 
-0.286902 -0.573351 -1.99891 0.0025 0.600642 0.489859 2.03889 0.00832443 111 4 1 6.95975e-07 
-0.282755 -0.565655 -1.97455 0.0025 0.604985 0.494825 2.04478 0.00826467 112 4 1 6.69321e-07 
-0.278637 -0.558086 -1.9604 0.0025 0.609276 0.499746 2.05057 0.00820646 113 4 1 6.60095e-07 
-0.274548 -0.550646 -1.9494 0.0025 0.613526 0.504633 2.05628 0.00814961 114 4 1 6.36146e-07 
-0.270488 -0.543297 -1.9329 0.0025 0.617733 0.509484 2.0619 0.00809411 115 4 1 5.99223e-07 
-0.266454 -0.536101 -1.90753 0.0025 0.621887 0.514287 2.06744 0.00804004 116 4 1 5.89742e-07 
-0.262448 -0.529017 -1.89996 0.0025 0.625996 0.51905 2.07289 0.00798727 117 4 1 5.92059e-07 
-0.258467 -0.522004 -1.89283 0.0025 0.630075 0.523791 2.07828 0.00793557 118 4 1 5.64665e-07 
-0.254512 -0.515107 -1.87346 0.0025 0.634116 0.528501 2.0836 0.00788499 119 4 1 5.57572e-07 
-0.250582 -0.508324 -1.87144 0.0025 0.638127 0.533187 2.08886 0.00783543 120 4 1 5.67669e-07 
-0.246676 -0.501568 -1.87258 0.0025 0.642122 0.537866 2.09409 0.00778668 121 4 1 5.47465e-07 
-0.242795 -0.494879 -1.85993 0.0025 0.646098 0.542534 2.09926 0.00773877 122 4 1 5.42771e-07 
-0.238937 -0.488264 -1.86239 0.0025 0.650057 0.547195 2.1044 0.00769164 123 4 1 5.67948e-07 
-0.235103 -0.481668 -1.87777 0.0025 0.654023 0.551875 2.10952 0.00764499 124 4 1 5.84473e-07 
-0.231292 -0.475054 -1.89537 0.0025 0.658012 0.556593 2.11466 0.00759865 125 4 1 5.86277e-07 
-0.227505 -0.468439 -1.90919 0.0025 0.662024 0.56135 2.11981 0.0075526 126 4 1 5.89585e-07 
-0.22374 -0.46181 -1.92635 0.0025 0.666061 0.566148 2.12497 0.00750682 127 4 1 6.06909e-07 
-0.219998 -0.455169 -1.95233 0.0025 0.670134 0.571002 2.13016 0.00746119 128 4 1 6.34822e-07 
-0.216279 -0.448453 -1.98978 0.0025 0.67426 0.57593 2.13539 0.00741553 129 4 1 6.47683e-07 
-0.212582 -0.441683 -2.02067 0.0025 0.678442 0.580936 2.14068 0.00736982 130 4 1 6.24726e-07 
-0.208909 -0.434885 -2.03034 0.0025 0.682658 0.585995 2.14599 0.00732431 131 4 1 6.06685e-07 
-0.205258 -0.428112 -2.04282 0.0025 0.686892 0.59109 2.1513 0.00727917 132 4 1 6.32647e-07 
-0.201629 -0.421315 -2.0784 0.0025 0.691161 0.59624 2.15664 0.0072342 133 4 1 6.26246e-07 
-0.198023 -0.414471 -2.08557 0.0025 0.69546 0.601437 2.162 0.00718949 134 4 1 5.90152e-07 
-0.19444 -0.407692 -2.08607 0.0025 0.699762 0.606651 2.16734 0.00714529 135 4 1 5.93365e-07 
-0.190878 -0.400924 -2.10189 0.0025 0.70407 0.611886 2.17266 0.00710157 136 4 1 5.91598e-07 
-0.187338 -0.39417 -2.10784 0.0025 0.708387 0.617145 2.17798 0.00705829 137 4 1 5.70825e-07 
-0.18382 -0.387465 -2.1075 0.0025 0.7127 0.622411 2.18328 0.00701558 138 4 1 5.55275e-07 
-0.180323 -0.380801 -2.10525 0.0025 0.717002 0.627678 2.18854 0.00697348 139 4 1 5.51832e-07 
-0.176846 -0.374187 -2.1094 0.0025 0.721297 0.632948 2.19377 0.00693195 140 4 1 5.51224e-07 
-0.173391 -0.36761 -2.11299 0.0025 0.72559 0.638228 2.19899 0.00689095 141 4 1 5.52146e-07 
-0.169955 -0.361043 -2.12372 0.0025 0.729884 0.643522 2.20418 0.0068504 142 4 1 5.42171e-07 
-0.16654 -0.354536 -2.12269 0.0025 0.734177 0.648827 2.20936 0.00681034 143 4 1 5.21805e-07 
-0.163145 -0.348055 -2.11901 0.0025 0.738458 0.654129 2.2145 0.00677087 144 4 1 5.14753e-07 
-0.159769 -0.341649 -2.11833 0.0025 0.742726 0.659428 2.21961 0.00673196 145 4 1 5.14416e-07 
-0.156413 -0.335265 -2.12145 0.0025 0.746987 0.664731 2.2247 0.00669355 146 4 1 5.27249e-07 
-0.153076 -0.328903 -2.14015 0.0025 0.751256 0.670055 2.22977 0.00665552 147 4 1 5.09507e-07 
-0.149757 -0.322554 -2.13032 0.0025 0.755521 0.675385 2.23483 0.00661795 148 4 1 4.6493e-07 
-0.146458 -0.316308 -2.10797 0.0025 0.759754 0.68069 2.23983 0.00658107 149 4 1 4.87587e-07 
-0.143176 -0.310107 -2.12949 0.0025 0.763979 0.685996 2.2448 0.00654468 150 4 1 5.20712e-07 
-0.139913 -0.303872 -2.14977 0.0025 0.768227 0.691341 2.24978 0.0065085 151 4 1 4.97131e-07 
-0.136668 -0.29767 -2.14735 0.0025 0.772479 0.696703 2.25476 0.00647267 152 4 1 4.63854e-07 
-0.13344 -0.291512 -2.13602 0.0025 0.776713 0.702055 2.25969 0.00643738 153 4 1 4.41719e-07 
-0.13023 -0.285454 -2.11918 0.0025 0.780918 0.707383 2.26458 0.00640272 154 4 1 4.69277e-07 
-0.127037 -0.279419 -2.14489 0.0025 0.785122 0.71272 2.26944 0.00636844 155 4 1 4.9324e-07 
-0.123862 -0.273355 -2.15989 0.0025 0.789346 0.718094 2.27432 0.00633435 156 4 1 4.60104e-07 
-0.120703 -0.267326 -2.15084 0.0025 0.793568 0.723475 2.27918 0.00630066 157 4 1 4.34321e-07 
-0.117561 -0.261369 -2.14169 0.0025 0.797768 0.728842 2.284 0.00626748 158 4 1 4.26679e-07 
-0.114435 -0.255473 -2.13305 0.0025 0.801948 0.734194 2.28877 0.00623482 159 4 1 4.51186e-07 
-0.111326 -0.249628 -2.15586 0.0025 0.806133 0.739564 2.29354 0.00620245 160 4 1 4.8416e-07 
-0.108233 -0.243742 -2.18508 0.0025 0.81035 0.744985 2.29834 0.00617018 161 4 1 4.58186e-07 
-0.105156 -0.237902 -2.17821 0.0025 0.814579 0.750434 2.30313 0.00613814 162 4 1 4.44564e-07 
-0.102095 -0.232147 -2.19016 0.0025 0.818809 0.755896 2.3079 0.00610643 163 4 1 4.41319e-07 
-0.0990494 -0.22648 -2.18401 0.0025 0.823042 0.761372 2.31267 0.00607503 164 4 1 4.61031e-07 
-0.0960196 -0.22095 -2.21484 0.0025 0.827294 0.766887 2.31744 0.0060438 165 4 1 5.23357e-07 
-0.0930055 -0.215427 -2.27286 0.0025 0.831616 0.772501 2.32227 0.00601239 166 4 1 5.32648e-07 
-0.0900072 -0.210036 -2.30156 0.0025 0.83601 0.778223 2.32717 0.00598079 167 4 1 5.60519e-07 
-0.0870247 -0.204774 -2.37042 0.0025 0.840489 0.784067 2.33215 0.00594892 168 4 1 5.8059e-07 
-0.0840582 -0.199719 -2.40634 0.0025 0.84506 0.790043 2.33722 0.00591674 169 4 1 6.00556e-07 
-0.0811079 -0.194962 -2.47168 0.0025 0.849728 0.796163 2.34237 0.00588423 170 4 1 7.00839e-07 
-0.0781739 -0.190364 -2.59466 0.0025 0.854559 0.802508 2.34769 0.00585097 171 4 1 7.55168e-07 
-0.0752569 -0.185998 -2.68916 0.0025 0.859576 0.809112 2.35319 0.00581682 172 4 1 8.00259e-07 
-0.0723571 -0.181836 -2.81955 0.0025 0.864781 0.815978 2.35888 0.00578181 173 4 1 7.76081e-07 
-0.069475 -0.177897 -2.85932 0.0025 0.870129 0.823047 2.36471 0.00574628 174 4 1 7.01769e-07 
-0.0666107 -0.174303 -2.87972 0.0025 0.875537 0.830218 2.37057 0.00571078 175 4 1 7.1826e-07 
-0.0637642 -0.170805 -2.93192 0.0025 0.881006 0.837488 2.37649 0.00567533 176 4 1 7.42655e-07 
-0.0609354 -0.167383 -2.98019 0.0025 0.886552 0.844878 2.38246 0.00563983 177 4 1 7.60584e-07 
-0.0581243 -0.163961 -3.04273 0.0025 0.892177 0.852392 2.3885 0.00560427 178 4 1 7.43155e-07 
-0.055331 -0.160507 -3.07901 0.0025 0.897857 0.859993 2.39457 0.00556882 179 4 1 6.01374e-07 
-0.0525554 -0.15723 -3.01298 0.0025 0.903473 0.867524 2.40055 0.0055342 180 4 1 3.6798e-07 
-0.0497968 -0.154003 -2.84173 0.0025 0.908831 0.874723 2.40624 0.00550157 181 4 1 7.58518e-12 
-0.0470538 -0.14998 -2.43386 0.0025 0.913653 0.881216 2.41135 0.00547254 182 4 1 -4.78118e-07 
-0.0443242 -0.144552 -1.79584 0.0025 0.917634 0.886607 2.41554 0.00544879 183 4 1 -3.49263e-07 
-0.041605 -0.138138 -1.70099 0.0025 0.921016 0.891213 2.41908 0.00542879 184 4 1 4.17112e-07 
-0.0388954 -0.13198 -2.19847 0.0025 0.924513 0.895934 2.42274 0.00540825 185 4 1 1.02746e-07 
-0.0361967 -0.126371 -1.70435 0.0025 0.927776 0.900298 2.4262 0.00538923 186 4 1 -1.62385e-06 
-0.0335061 -0.118662 0.163577 0.0025 0.92925 0.902319 2.42776 0.00538068 187 3 1 -1.63422e-06 
-0.030816 -0.107603 0.614459 0.0025 0.929086 0.902203 2.42754 0.00538164 188 5 1 8.125e-07 
-0.0281245 -0.0975968 -1.20947 0.0025 0.929799 0.903183 2.42822 0.00537751 189 4 1 1.82285e-06 
-0.0254385 -0.0913935 -1.9131 0.0025 0.932118 0.906221 2.4307 0.00536413 190 4 1 -9.17177e-07 
-0.0227604 -0.0833809 0.25323 0.0025 0.933397 0.907946 2.43211 0.00535678 191 3 1 -2.1294e-06 
-0.0200817 -0.0711425 1.1527 0.0025 0.932609 0.906985 2.43124 0.0053613 192 4 1 3.63085e-07 
-0.0173991 -0.060593 -0.451993 0.0025 0.932241 0.906499 2.43078 0.00536342 193 5 1 1.60533e-06 
-0.0147183 -0.0538138 -1.08791 0.0025 0.933335 0.907919 2.43196 0.00535713 194 4 1 -1.41336e-07 
-0.0120419 -0.0445683 -0.15415 0.0025 0.934262 0.909177 2.43299 0.00535182 195 4 1 -9.63392e-07 
-0.00936649 -0.0334736 0.254368 0.0025 0.934292 0.909248 2.43301 0.00535164 196 3 1 -2.252e-07 
-0.00669029 -0.0233978 0.13273 0.0025 0.934077 0.908962 2.43276 0.00535288 197 5 1 2.75916e-07 
-0.00401362 -0.0146668 -0.152227 0.0025 0.934095 0.90899 2.43278 0.00535277 198 4 1 3.06275e-07 
-0.00133751 -0.00512663 -0.294049 0.0025 0.934381 0.909368 2.43311 0.00535113 199 3 1 -3.25103e-07 
0.00133751 0.00512663 0.294049 0.0025 0.934381 0.909368 2.43311 0.00535113 200 3 1 -3.25103e-07 
0.00401362 0.0146668 0.152227 0.0025 0.934095 0.90899 2.43278 0.00535277 201 4 1 3.06275e-07 
0.00669029 0.0233978 -0.13273 0.0025 0.934077 0.908962 2.43276 0.00535288 202 5 1 2.75916e-07 
0.00936649 0.0334736 -0.254368 0.0025 0.934292 0.909248 2.43301 0.00535164 203 3 1 -2.252e-07 
0.0120419 0.0445683 0.15415 0.0025 0.934262 0.909177 2.43299 0.00535182 204 4 1 -9.63392e-07 
0.0147183 0.0538138 1.08791 0.0025 0.933335 0.907919 2.43196 0.00535713 205 4 1 -1.41336e-07 
0.0173991 0.060593 0.451993 0.0025 0.932241 0.906499 2.43078 0.00536342 206 5 1 1.60533e-06 
0.0200817 0.0711425 -1.1527 0.0025 0.932609 0.906985 2.43124 0.0053613 207 4 1 3.63085e-07 
0.0227604 0.0833809 -0.25323 0.0025 0.933397 0.907946 2.43211 0.00535678 208 3 1 -2.1294e-06 
0.0254385 0.0913935 1.9131 0.0025 0.932118 0.906221 2.4307 0.00536413 209 4 1 -9.17177e-07 
0.0281245 0.0975968 1.20947 0.0025 0.929799 0.903183 2.42822 0.00537751 210 4 1 1.82285e-06 
