# Time [s]: 0.436574
# Columns: pos [m], vel [m/s], acc [m/s^2], mass [kg], dens [kg/m^3], pres [Pa], ene [J/kg], sml [m], id, neighbor, alpha, gradh, ...additional?
1.20837 -0.673076 7.99838e-06 0.0025 0.51106 0.432737 2.15252 0.0097836 0 4 1 -0.000134225 
1.21315 -0.673077 7.5639e-06 0.0025 0.536918 0.4262 1.95005 0.00931242 1 4 1 0.000179254 
1.21769 -0.673077 7.51983e-06 0.0025 0.548248 0.430871 1.96852 0.00911996 2 3 1 -1.90585e-05 
1.22227 -0.673078 8.04896e-06 0.0025 0.545983 0.429207 1.96466 0.00915779 3 5 1 3.48561e-06 
1.22685 -0.673078 9.01767e-06 0.0025 0.546382 0.429362 1.9646 0.00915111 4 4 1 -1.3868e-07 
1.23142 -0.673079 9.81877e-06 0.0025 0.546393 0.429333 1.96437 0.00915092 5 4 1 1.43739e-07 
1.236 -0.67308 9.40454e-06 0.0025 0.546416 0.429332 1.96431 0.00915053 6 4 1 -3.49545e-09 
1.24057 -0.673081 6.34086e-06 0.0025 0.54643 0.429329 1.96424 0.0091503 7 4 1 8.26026e-09 
1.24515 -0.673081 -1.19089e-06 0.0025 0.546445 0.429329 1.96419 0.00915006 8 4 1 4.80352e-09 
1.24972 -0.673082 -1.5468e-05 0.0025 0.546457 0.429329 1.96415 0.00914984 9 4 1 5.5356e-09 
1.2543 -0.673083 -3.92803e-05 0.0025 0.546469 0.429329 1.96411 0.00914965 10 4 1 -2.1528e-09 
1.25887 -0.673085 -7.57455e-05 0.0025 0.546481 0.429329 1.96406 0.00914946 11 4 1 4.8503e-09 
1.26345 -0.673086 -0.000127659 0.0025 0.546491 0.429329 1.96403 0.00914928 12 4 1 3.01404e-09 
1.26802 -0.673088 -0.000196305 0.0025 0.546501 0.42933 1.96399 0.00914911 13 4 1 3.77895e-09 
1.2726 -0.67309 -0.000279976 0.0025 0.54651 0.42933 1.96396 0.00914897 14 4 1 2.36649e-09 
1.27717 -0.673093 -0.000372758 0.0025 0.546518 0.429331 1.96394 0.00914883 15 4 1 -1.31059e-09 
1.28175 -0.673096 -0.000464291 0.0025 0.546526 0.429332 1.96391 0.00914869 16 4 1 5.17175e-09 
1.28632 -0.673099 -0.00054098 0.0025 0.546534 0.429333 1.96389 0.00914856 17 4 1 1.71468e-09 
1.2909 -0.673103 -0.000588612 0.0025 0.546541 0.429334 1.96387 0.00914844 18 4 1 -1.03278e-09 
1.29547 -0.673107 -0.000595689 0.0025 0.546548 0.429335 1.96385 0.00914832 19 4 1 2.76045e-09 
1.30004 -0.673112 -0.000556388 0.0025 0.546555 0.429337 1.96383 0.00914821 20 4 1 1.1157e-09 
1.30462 -0.673116 -0.000472112 0.0025 0.546561 0.429338 1.96381 0.0091481 21 4 1 1.02729e-09 
1.30919 -0.67312 -0.000351127 0.0025 0.546567 0.429339 1.9638 0.00914801 22 4 1 8.03565e-10 
1.31377 -0.673123 -0.000206454 0.0025 0.546572 0.42934 1.96379 0.00914793 23 4 1 -4.81965e-10 
1.31834 -0.673126 -5.28109e-05 0.0025 0.546576 0.42934 1.96377 0.00914785 24 4 1 1.14939e-09 
1.32291 -0.673129 9.64039e-05 0.0025 0.54658 0.429341 1.96376 0.00914779 25 4 1 4.24986e-10 
1.32749 -0.673131 0.000231235 0.0025 0.546583 0.42934 1.96375 0.00914774 26 4 1 -6.29838e-10 
1.33206 -0.673132 0.000346024 0.0025 0.546586 0.42934 1.96373 0.00914769 27 4 1 1.01158e-09 
1.33663 -0.673134 0.0004391 0.0025 0.546588 0.429339 1.96372 0.00914765 28 4 1 7.14652e-10 
1.34121 -0.673135 0.000511784 0.0025 0.54659 0.429338 1.96371 0.00914763 29 4 1 -8.64405e-10 
1.34578 -0.673136 0.000567239 0.0025 0.546592 0.429336 1.9637 0.0091476 30 4 1 4.49784e-10 
1.35036 -0.673137 0.000609501 0.0025 0.546593 0.429335 1.96369 0.00914758 31 4 1 1.93891e-09 
1.35493 -0.673138 0.000642731 0.0025 0.546594 0.429333 1.96368 0.00914756 32 4 1 -8.69787e-10 
1.3595 -0.673139 0.000670574 0.0025 0.546594 0.429332 1.96367 0.00914755 33 4 1 -8.33473e-10 
1.36408 -0.67314 0.000695654 0.0025 0.546595 0.42933 1.96366 0.00914754 34 4 1 2.11447e-09 
1.36865 -0.673142 0.000719401 0.0025 0.546595 0.429328 1.96365 0.00914753 35 4 1 -2.0904e-10 
1.37323 -0.673144 0.000742369 0.0025 0.546596 0.429326 1.96364 0.00914753 36 4 1 -8.73256e-10 
1.3778 -0.673146 0.000764887 0.0025 0.546596 0.429324 1.96363 0.00914753 37 3 1 1.43992e-09 
1.38237 -0.673148 0.000787571 0.0025 0.546596 0.429322 1.96362 0.00914753 38 4 1 1.16289e-10 
1.38695 -0.673151 0.000811365 0.0025 0.546595 0.42932 1.96361 0.00914754 39 4 1 -7.02562e-10 
1.39152 -0.673153 0.000837353 0.0025 0.546595 0.429318 1.9636 0.00914754 40 4 1 7.433e-10 
1.39609 -0.673156 0.000866996 0.0025 0.546594 0.429316 1.96359 0.00914755 41 4 1 4.68706e-10 
1.40067 -0.67316 0.00090297 0.0025 0.546594 0.429313 1.96359 0.00914756 42 4 1 -6.10868e-10 
1.40524 -0.673164 0.000949716 0.0025 0.546593 0.429311 1.96358 0.00914758 43 4 1 -1.49835e-11 
1.40982 -0.673168 0.00101229 0.0025 0.546592 0.429308 1.96357 0.00914759 44 4 1 9.22648e-10 
1.41439 -0.673173 0.00109327 0.0025 0.54659 0.429306 1.96356 0.00914762 45 4 1 -4.56105e-10 
1.41896 -0.673177 0.00118987 0.0025 0.546589 0.429303 1.96355 0.00914764 46 4 1 -8.42115e-10 
1.42354 -0.673183 0.00129438 0.0025 0.546587 0.429299 1.96354 0.00914767 47 4 1 4.49412e-10 
1.42811 -0.673188 0.00139908 0.0025 0.546585 0.429296 1.96354 0.00914771 48 4 1 1.28977e-10 
1.43268 -0.673194 0.00150277 0.0025 0.546583 0.429292 1.96353 0.00914775 49 4 1 -7.61302e-10 
1.43726 -0.6732 0.00161354 0.0025 0.54658 0.429288 1.96352 0.00914779 50 4 1 -4.69105e-10 
1.44183 -0.673207 0.0017442 0.0025 0.546577 0.429284 1.96351 0.00914784 51 4 1 4.19394e-10 
1.44641 -0.673215 0.00190288 0.0025 0.546574 0.429279 1.9635 0.0091479 52 4 1 -3.69031e-10 
1.45098 -0.673222 0.00208553 0.0025 0.54657 0.429274 1.96349 0.00914796 53 4 1 -1.17193e-09 
1.45555 -0.673231 0.00227684 0.0025 0.546566 0.429268 1.96348 0.00914803 54 4 1 -3.47063e-10 
1.46013 -0.67324 0.00246029 0.0025 0.546561 0.429262 1.96347 0.00914811 55 4 1 2.71471e-10 
1.4647 -0.67325 0.00263078 0.0025 0.546556 0.429256 1.96346 0.0091482 56 4 1 -7.3758e-10 
1.46928 -0.673261 0.00280082 0.0025 0.54655 0.429248 1.96345 0.00914829 57 4 1 -1.1413e-09 
1.47385 -0.673273 0.00299505 0.0025 0.546544 0.429241 1.96343 0.00914839 58 4 1 9.57325e-12 
1.47842 -0.673286 0.00323692 0.0025 0.546537 0.429233 1.96342 0.00914851 59 4 1 -3.95842e-10 
1.483 -0.673301 0.00353744 0.0025 0.54653 0.429224 1.96341 0.00914863 60 4 1 -1.25827e-09 
1.48757 -0.673317 0.00389301 0.0025 0.546522 0.429214 1.96339 0.00914877 61 4 1 -1.22059e-09 
1.49215 -0.673334 0.0042906 0.0025 0.546513 0.429203 1.96337 0.00914892 62 4 1 -6.94656e-10 
1.49672 -0.673353 0.00471431 0.0025 0.546503 0.429192 1.96336 0.00914909 63 4 1 -1.13209e-09 
-0.498703 -0.673374 0.00515274 0.0025 0.546492 0.429179 1.96334 0.00914927 64 4 1 -1.63132e-09 
-0.494128 -0.673397 0.00561052 0.0025 0.546479 0.429164 1.96332 0.00914948 65 4 1 -1.32656e-09 
-0.489554 -0.673422 0.00611918 0.0025 0.546466 0.429149 1.96329 0.0091497 66 4 1 -1.41377e-09 
-0.484979 -0.673451 0.00673297 0.0025 0.546451 0.429132 1.96327 0.00914995 67 4 1 -1.95766e-09 
-0.480404 -0.673483 0.00750175 0.0025 0.546434 0.429113 1.96324 0.00915023 68 4 1 -2.4298e-09 
-0.475828 -0.673519 0.00843442 0.0025 0.546416 0.429092 1.96321 0.00915054 69 4 1 -2.5611e-09 
-0.471253 -0.673558 0.00948298 0.0025 0.546395 0.429068 1.96318 0.00915089 70 4 1 -3.05339e-09 
-0.466677 -0.673601 0.0105732 0.0025 0.546371 0.429042 1.96314 0.00915129 71 4 1 -3.39925e-09 
-0.462102 -0.673649 0.0116737 0.0025 0.546345 0.429012 1.9631 0.00915173 72 4 1 -3.24621e-09 
-0.457526 -0.673704 0.012848 0.0025 0.546316 0.42898 1.96306 0.00915222 73 4 1 -3.50893e-09 
-0.45295 -0.673766 0.0142286 0.0025 0.546283 0.428944 1.96301 0.00915276 74 4 1 -4.21339e-09 
-0.448373 -0.673835 0.0159164 0.0025 0.546248 0.428904 1.96296 0.00915336 75 4 1 -4.86645e-09 
-0.443796 -0.673911 0.0178797 0.0025 0.546208 0.428859 1.9629 0.00915403 76 4 1 -5.31682e-09 
-0.439219 -0.673994 0.0199407 0.0025 0.546163 0.42881 1.96283 0.00915478 77 4 1 -5.37118e-09 
-0.434641 -0.674085 0.0218797 0.0025 0.546114 0.428756 1.96276 0.0091556 78 4 1 -4.9582e-09 
-0.430063 -0.674184 0.0235805 0.0025 0.54606 0.428696 1.96268 0.0091565 79 4 1 -4.15343e-09 
-0.425485 -0.674292 0.0251045 0.0025 0.546003 0.428633 1.9626 0.00915745 80 4 1 -3.32894e-09 
-0.420906 -0.674409 0.0265811 0.0025 0.545943 0.428567 1.96251 0.00915846 81 4 1 -2.62146e-09 
-0.416326 -0.674531 0.0279005 0.0025 0.545881 0.428498 1.96242 0.00915951 82 4 1 -1.44535e-09 
-0.411746 -0.674655 0.0286414 0.0025 0.545817 0.428428 1.96232 0.00916058 83 4 1 6.76464e-10 
-0.407166 -0.674779 0.0285258 0.0025 0.545754 0.428358 1.96223 0.00916164 84 4 1 3.42863e-09 
-0.402585 -0.674898 0.0274292 0.0025 0.545693 0.428291 1.96214 0.00916266 85 4 1 6.72432e-09 
-0.398003 -0.675007 0.024946 0.0025 0.545638 0.42823 1.96206 0.00916359 86 4 1 1.05006e-08 
-0.393421 -0.675102 0.0210943 0.0025 0.545591 0.428178 1.96199 0.00916438 87 4 1 1.46833e-08 
-0.388839 -0.675177 0.015592 0.0025 0.545556 0.42814 1.96194 0.00916496 88 4 1 1.707e-08 
-0.384256 -0.675225 0.00934547 0.0025 0.545536 0.428117 1.96191 0.00916531 89 4 1 2.23878e-08 
-0.379673 -0.675249 0.00055386 0.0025 0.545534 0.428115 1.96191 0.00916534 90 5 1 3.32783e-08 
-0.375091 -0.675207 -0.0126328 0.0025 0.54556 0.428145 1.96194 0.0091649 91 4 1 6.57852e-08 
-0.370509 -0.675098 -0.0400213 0.0025 0.545642 0.428239 1.96206 0.00916352 92 4 1 1.75355e-07 
-0.365927 -0.674725 -0.134479 0.0025 0.545868 0.428493 1.96238 0.00915973 93 4 1 3.34458e-07 
-0.361349 -0.673793 -0.285385 0.0025 0.546359 0.429036 1.96309 0.00915149 94 4 1 4.06641e-07 
-0.356776 -0.672251 -0.412439 0.0025 0.547161 0.429918 1.96424 0.00913807 95 4 1 4.53274e-07 
-0.352211 -0.670156 -0.56047 0.0025 0.548288 0.431162 1.96585 0.00911929 96 4 1 6.12317e-07 
-0.347657 -0.667269 -0.772031 0.0025 0.549824 0.432859 1.96805 0.00909381 97 4 1 8.23072e-07 
-0.343117 -0.663375 -1.02922 0.0025 0.551869 0.435115 1.97098 0.00906012 98 4 1 9.43877e-07 
-0.338596 -0.658455 -1.25634 0.0025 0.554431 0.437942 1.97463 0.00901825 99 4 1 9.24944e-07 
-0.334099 -0.652733 -1.41631 0.0025 0.557413 0.441237 1.97888 0.00897001 100 4 1 8.22929e-07 
-0.329626 -0.646542 -1.50179 0.0025 0.560674 0.44485 1.9835 0.00891784 101 4 1 7.47189e-07 
-0.325181 -0.640085 -1.56447 0.0025 0.564112 0.448672 1.98836 0.00886349 102 4 1 7.62401e-07 
-0.320763 -0.633386 -1.63635 0.0025 0.567703 0.452677 1.99341 0.00880742 103 4 1 8.32117e-07 
-0.316373 -0.626414 -1.72392 0.0025 0.571465 0.456883 1.99868 0.00874945 104 4 1 9.06197e-07 
-0.312013 -0.619123 -1.81675 0.0025 0.575411 0.461306 2.00419 0.00868944 105 4 1 9.54602e-07 
-0.307684 -0.611535 -1.90388 0.0025 0.579539 0.465945 2.00993 0.00862754 106 4 1 9.51642e-07 
-0.303386 -0.6037 -1.96295 0.0025 0.583813 0.47076 2.01585 0.00856438 107 4 1 9.13983e-07 
-0.299119 -0.595754 -2.00104 0.0025 0.588182 0.475697 2.02187 0.00850077 108 4 1 8.65099e-07 
-0.294885 -0.587767 -2.01737 0.0025 0.592599 0.480704 2.02793 0.00843741 109 4 1 8.03862e-07 
-0.290682 -0.579822 -2.01452 0.0025 0.59702 0.48573 2.03397 0.00837492 110 4 1 7.4143e-07 
-0.28651 -0.571982 -1.99714 0.0025 0.601411 0.490738 2.03994 0.00831378 111 4 1 6.91854e-07 
-0.282368 -0.564301 -1.97484 0.0025 0.605751 0.495702 2.04581 0.00825422 112 4 1 6.68546e-07 
-0.278255 -0.556742 -1.96029 0.0025 0.610041 0.500624 2.05159 0.00819618 113 4 1 6.603e-07 
-0.274171 -0.549309 -1.95144 0.0025 0.61429 0.505513 2.0573 0.00813948 114 4 1 6.31235e-07 
-0.270116 -0.541973 -1.93013 0.0025 0.618494 0.510363 2.06292 0.00808415 115 4 1 5.95856e-07 
-0.266087 -0.534793 -1.90802 0.0025 0.622645 0.515164 2.06845 0.00803026 116 4 1 5.93974e-07 
-0.262085 -0.527714 -1.90264 0.0025 0.626754 0.519931 2.07389 0.00797761 117 4 1 5.89024e-07 
-0.258109 -0.520707 -1.89164 0.0025 0.630832 0.524672 2.07928 0.00792604 118 4 1 5.59944e-07 
-0.254159 -0.513823 -1.87265 0.0025 0.634871 0.529382 2.0846 0.00787562 119 4 1 5.63391e-07 
-0.250234 -0.507039 -1.87645 0.0025 0.638883 0.534072 2.08986 0.00782615 120 4 1 5.69455e-07 
-0.246333 -0.500284 -1.87377 0.0025 0.642883 0.538758 2.09508 0.00777746 121 4 1 5.43666e-07 
-0.242456 -0.493603 -1.86082 0.0025 0.64686 0.54343 2.10025 0.00772965 122 4 1 5.46984e-07 
-0.238603 -0.486986 -1.86712 0.0025 0.650823 0.548098 2.10539 0.00768258 123 4 1 5.75466e-07 
-0.234774 -0.480378 -1.88467 0.0025 0.6548 0.552793 2.11053 0.00763592 124 4 1 5.87116e-07 
-0.230967 -0.473753 -1.90062 0.0025 0.658799 0.557525 2.11567 0.00758957 125 4 1 5.88082e-07 
-0.227184 -0.467128 -1.91546 0.0025 0.662821 0.562296 2.12083 0.00754351 126 4 1 5.92781e-07 
-0.223424 -0.460488 -1.93241 0.0025 0.66687 0.567111 2.126 0.00749771 127 4 1 6.15149e-07 
-0.219686 -0.453827 -1.96362 0.0025 0.670959 0.571986 2.1312 0.00745202 128 4 1 6.41465e-07 
-0.215972 -0.447086 -1.99921 0.0025 0.675103 0.576939 2.13646 0.00740627 129 4 1 6.46835e-07 
-0.21228 -0.440296 -2.02799 0.0025 0.6793 0.581965 2.14176 0.00736051 130 4 1 6.20957e-07 
-0.208611 -0.433492 -2.03395 0.0025 0.683527 0.587039 2.14708 0.00731501 131 4 1 6.1017e-07 
-0.204965 -0.426709 -2.05184 0.0025 0.687772 0.592151 2.15241 0.00726985 132 4 1 6.40585e-07 
-0.201341 -0.419887 -2.08826 0.0025 0.692057 0.597321 2.15776 0.00722484 133 4 1 6.19423e-07 
-0.19774 -0.413041 -2.08618 0.0025 0.696365 0.602532 2.16312 0.00718015 134 4 1 5.88291e-07 
-0.194161 -0.40626 -2.09276 0.0025 0.700673 0.607757 2.16846 0.007136 135 4 1 5.98509e-07 
-0.190604 -0.399481 -2.10765 0.0025 0.70499 0.613007 2.1738 0.0070923 136 4 1 5.88366e-07 
-0.187068 -0.392724 -2.11061 0.0025 0.709314 0.618276 2.17912 0.00704907 137 4 1 5.69326e-07 
-0.183555 -0.386019 -2.11132 0.0025 0.713632 0.623551 2.18442 0.00700641 138 4 1 5.55571e-07 
-0.180062 -0.379357 -2.10833 0.0025 0.71794 0.628827 2.18968 0.00696437 139 4 1 5.52109e-07 
-0.17659 -0.372739 -2.11332 0.0025 0.72224 0.634106 2.19492 0.00692291 140 4 1 5.55514e-07 
-0.173139 -0.366159 -2.11992 0.0025 0.72654 0.639398 2.20014 0.00688193 141 4 1 5.49919e-07 
-0.169708 -0.359587 -2.12504 0.0025 0.730841 0.644703 2.20534 0.00684144 142 4 1 5.40987e-07 
-0.166298 -0.353079 -2.12797 0.0025 0.735138 0.650016 2.21051 0.00680144 143 4 1 5.20364e-07 
-0.162907 -0.346602 -2.11911 0.0025 0.739422 0.655325 2.21566 0.00676204 144 4 1 5.15091e-07 
-0.159535 -0.340195 -2.12371 0.0025 0.743694 0.660632 2.22077 0.00672319 145 4 1 5.20355e-07 
-0.156183 -0.333809 -2.12772 0.0025 0.747964 0.665949 2.22586 0.00668481 146 4 1 5.2792e-07 
-0.152851 -0.327434 -2.1456 0.0025 0.752241 0.671285 2.23094 0.00664681 147 4 1 4.99969e-07 
-0.149537 -0.321095 -2.12634 0.0025 0.756507 0.676619 2.23599 0.00660933 148 4 1 4.64051e-07 
-0.146241 -0.314862 -2.11237 0.0025 0.760741 0.681928 2.24099 0.00657254 149 4 1 5.01751e-07 
-0.142964 -0.308643 -2.14096 0.0025 0.764977 0.687251 2.24597 0.00653614 150 4 1 5.2003e-07 
-0.139705 -0.302397 -2.15271 0.0025 0.769235 0.692611 2.25096 0.00649997 151 4 1 4.90361e-07 
-0.136464 -0.296197 -2.15018 0.0025 0.773491 0.697981 2.25594 0.0064642 152 4 1 4.56813e-07 
-0.133241 -0.29005 -2.13207 0.0025 0.777724 0.703334 2.26087 0.00642902 153 4 1 4.45003e-07 
-0.130035 -0.283999 -2.12595 0.0025 0.781931 0.708668 2.26575 0.00639442 154 4 1 4.82624e-07 
-0.126846 -0.277945 -2.15568 0.0025 0.786147 0.714023 2.27063 0.00636013 155 4 1 4.90299e-07 
-0.123675 -0.271873 -2.16245 0.0025 0.790381 0.719411 2.27551 0.00632606 156 4 1 4.50563e-07 
-0.12052 -0.265852 -2.15018 0.0025 0.794604 0.724797 2.28037 0.00629245 157 4 1 4.31898e-07 
-0.117382 -0.259901 -2.14239 0.0025 0.798803 0.730166 2.28518 0.00625936 158 4 1 4.28856e-07 
-0.114261 -0.25401 -2.13569 0.0025 0.802985 0.735524 2.28996 0.00622676 159 4 1 4.62878e-07 
-0.111155 -0.248145 -2.16927 0.0025 0.807181 0.740911 2.29474 0.0061944 160 4 1 4.82508e-07 
-0.108066 -0.242244 -2.18581 0.0025 0.811407 0.746346 2.29953 0.00616213 161 4 1 4.45939e-07 
-0.104993 -0.23641 -2.17736 0.0025 0.815636 0.751797 2.30432 0.00613019 162 4 1 4.39481e-07 
-0.101936 -0.230646 -2.18727 0.0025 0.819861 0.757255 2.30909 0.0060986 163 4 1 4.33034e-07 
-0.0988946 -0.224986 -2.17698 0.0025 0.824084 0.762722 2.31384 0.00606734 164 4 1 4.71161e-07 
-0.0958687 -0.219429 -2.22566 0.0025 0.828335 0.768239 2.3186 0.0060362 165 4 1 5.18409e-07 
-0.0928584 -0.213872 -2.26411 0.0025 0.832654 0.773852 2.32343 0.00600489 166 4 1 5.18219e-07 
-0.0898638 -0.20846 -2.29857 0.0025 0.837035 0.779559 2.32831 0.00597346 167 4 1 5.47692e-07 
-0.0868849 -0.203155 -2.35386 0.0025 0.841493 0.785377 2.33326 0.00594182 168 4 1 5.52332e-07 
-0.0839219 -0.198078 -2.37985 0.0025 0.846025 0.791307 2.33828 0.00590999 169 4 1 6.03028e-07 
-0.0809748 -0.193269 -2.46723 0.0025 0.850662 0.797388 2.3434 0.00587778 170 4 1 6.9609e-07 
-0.0780441 -0.188592 -2.5743 0.0025 0.855465 0.803698 2.34868 0.00584478 171 4 1 7.41426e-07 
-0.07513 -0.184159 -2.67727 0.0025 0.860448 0.810262 2.35415 0.00581092 172 4 1 7.89506e-07 
-0.0722331 -0.179911 -2.7978 0.0025 0.865618 0.817083 2.3598 0.00577622 173 4 1 7.42096e-07 
-0.0693537 -0.175951 -2.82003 0.0025 0.870913 0.824087 2.36556 0.0057411 174 4 1 7.12199e-07 
-0.0664919 -0.172329 -2.87956 0.0025 0.876285 0.831213 2.37138 0.0057059 175 4 1 7.42248e-07 
-0.0636478 -0.168796 -2.92905 0.0025 0.881746 0.838474 2.37729 0.00567056 176 4 1 7.50227e-07 
-0.0608213 -0.165337 -2.98937 0.0025 0.887294 0.845869 2.38326 0.00563511 177 4 1 7.75655e-07 
-0.0580126 -0.161871 -3.05652 0.0025 0.892932 0.853401 2.3893 0.00559953 178 4 1 7.12054e-07 
-0.0552217 -0.158407 -3.04824 0.0025 0.8986 0.86099 2.39536 0.00556421 179 4 1 5.78404e-07 
-0.0524483 -0.155173 -2.99014 0.0025 0.904192 0.868495 2.40131 0.0055298 180 4 1 4.88986e-07 
-0.0496919 -0.152021 -2.93962 0.0025 0.909631 0.875808 2.40708 0.00549674 181 4 1 2.03135e-07 
-0.0469516 -0.148244 -2.6313 0.0025 0.914695 0.882626 2.41245 0.0054663 182 4 1 -3.70878e-07 
-0.0442255 -0.143257 -1.98177 0.0025 0.918975 0.888415 2.41696 0.00544085 183 4 1 -4.72851e-07 
-0.0415107 -0.13698 -1.67998 0.0025 0.922496 0.893211 2.42064 0.00542008 184 4 1 1.4157e-07 
-0.0388054 -0.130541 -2.00038 0.0025 0.925893 0.897817 2.42419 0.00540019 185 4 1 2.84793e-07 
-0.0361105 -0.125121 -1.94124 0.0025 0.929255 0.902329 2.42773 0.00538065 186 4 1 -9.9369e-07 
-0.0334248 -0.118546 -0.503968 0.0025 0.931383 0.905206 2.42999 0.00536836 187 4 1 -1.80723e-06 
-0.0307421 -0.108042 0.666428 0.0025 0.931641 0.905642 2.43023 0.00536687 188 4 1 -1.7707e-07 
-0.0280579 -0.0970319 -0.438471 0.0025 0.931827 0.905953 2.43035 0.0053658 189 4 1 1.87556e-06 
-0.0253763 -0.0900345 -2.05192 0.0025 0.933754 0.908492 2.43237 0.00535473 190 4 1 2.30377e-07 
-0.0227032 -0.0832601 -0.605802 0.0025 0.935696 0.911062 2.43449 0.00534362 191 3 1 -2.29065e-06 
-0.0200327 -0.0719908 1.32255 0.0025 0.935364 0.910695 2.43414 0.00534551 192 4 1 -7.58229e-07 
-0.0173576 -0.0605445 0.310408 0.0025 0.934402 0.909464 2.43303 0.00535101 193 5 1 1.94154e-06 
-0.0146817 -0.0529404 -1.46042 0.0025 0.935241 0.910545 2.43393 0.00534621 194 4 1 6.5112e-07 
-0.0120114 -0.0443349 -0.52668 0.0025 0.936647 0.912409 2.43548 0.00533819 195 4 1 -1.31511e-06 
-0.00934349 -0.0337076 0.428217 0.0025 0.936821 0.91268 2.43565 0.0053372 196 3 1 -6.3642e-07 
-0.00667422 -0.0235698 0.369284 0.0025 0.936349 0.912069 2.43512 0.00533989 197 4 1 4.91522e-07 
-0.0040036 -0.0145106 -0.303595 0.0025 0.936303 0.91201 2.43508 0.00534015 198 5 1 5.10433e-07 
-0.00133407 -0.00489464 -0.382839 0.0025 0.936738 0.912573 2.43557 0.00533767 199 3 1 -4.72647e-07 
0.00133407 0.00489464 0.382839 0.0025 0.936738 0.912573 2.43557 0.00533767 200 3 1 -4.72647e-07 
0.0040036 0.0145106 0.303595 0.0025 0.936303 0.91201 2.43508 0.00534015 201 5 1 5.10433e-07 
0.00667422 0.0235698 -0.369284 0.0025 0.936349 0.912069 2.43512 0.00533989 202 4 1 4.91522e-07 
0.00934349 0.0337076 -0.428217 0.0025 0.936821 0.91268 2.43565 0.0053372 203 3 1 -6.3642e-07 
0.0120114 0.0443349 0.52668 0.0025 0.936647 0.912409 2.43548 0.00533819 204 4 1 -1.31511e-06 
0.0146817 0.0529404 1.46042 0.0025 0.935241 0.910545 2.43393 0.00534621 205 4 1 6.5112e-07 
0.0173576 0.0605445 -0.310408 0.0025 0.934402 0.909464 2.43303 0.00535101 206 5 1 1.94154e-06 
0.0200327 0.0719908 -1.32255 0.0025 0.935364 0.910695 2.43414 0.00534551 207 4 1 -7.58229e-07 
0.0227032 0.0832601 0.605802 0.0025 0.935696 0.911062 2.43449 0.00534362 208 3 1 -2.29065e-06 
0.0253763 0.0900345 2.05192 0.0025 0.933754 0.908492 2.43237 0.00535473 209 4 1 2.30377e-07 
0.0280579 0.0970319 0.438471 0.0025 0.931827 0.905953 2.43035 0.0053658 210 4 1 1.87556e-06 
