# Time [s]: 0.443522
# Columns: pos [m], vel [m/s], acc [m/s^2], mass [kg], dens [kg/m^3], pres [Pa], ene [J/kg], sml [m], id, neighbor, alpha, gradh, ...additional?
1.20369 -0.673076 -5.21156e-06 0.0025 0.51106 0.432738 2.15252 0.00978359 0 4 1 -0.000134225 
1.20848 -0.673077 -5.60511e-06 0.0025 0.536918 0.426201 1.95006 0.00931241 1 4 1 0.000179254 
1.21301 -0.673077 -5.64893e-06 0.0025 0.548249 0.430871 1.96852 0.00911995 2 3 1 -1.90585e-05 
1.2176 -0.673078 -5.76948e-06 0.0025 0.545984 0.429207 1.96466 0.00915778 3 5 1 3.4856e-06 
1.22217 -0.673078 -6.83581e-06 0.0025 0.546383 0.429363 1.9646 0.0091511 4 4 1 -1.38675e-07 
1.22675 -0.673079 -1.01391e-05 0.0025 0.546394 0.429333 1.96437 0.00915091 5 4 1 1.43751e-07 
1.23132 -0.67308 -1.73592e-05 0.0025 0.546417 0.429332 1.96431 0.00915052 6 4 1 -3.47614e-09 
1.2359 -0.673081 -3.06069e-05 0.0025 0.546431 0.42933 1.96425 0.00915029 7 4 1 8.2889e-09 
1.24047 -0.673082 -5.24514e-05 0.0025 0.546445 0.42933 1.96419 0.00915005 8 4 1 4.84328e-09 
1.24505 -0.673083 -8.5773e-05 0.0025 0.546458 0.42933 1.96415 0.00914983 9 4 1 5.58768e-09 
1.24962 -0.673084 -0.000133263 0.0025 0.54647 0.42933 1.96411 0.00914963 10 4 1 -2.08932e-09 
1.2542 -0.673085 -0.000196472 0.0025 0.546482 0.42933 1.96406 0.00914943 11 4 1 4.92038e-09 
1.25877 -0.673087 -0.000274551 0.0025 0.546493 0.429331 1.96403 0.00914925 12 4 1 3.08071e-09 
1.26335 -0.67309 -0.000363093 0.0025 0.546503 0.429332 1.96399 0.00914908 13 4 1 3.8275e-09 
1.26792 -0.673092 -0.000453656 0.0025 0.546512 0.429332 1.96397 0.00914893 14 4 1 2.38018e-09 
1.2725 -0.673096 -0.000534452 0.0025 0.546521 0.429334 1.96394 0.00914878 15 4 1 -1.34584e-09 
1.27707 -0.673099 -0.000592306 0.0025 0.546529 0.429335 1.96391 0.00914864 16 4 1 5.08141e-09 
1.28164 -0.673103 -0.000615475 0.0025 0.546537 0.429336 1.96389 0.00914851 17 4 1 1.5747e-09 
1.28622 -0.673107 -0.00059648 0.0025 0.546545 0.429338 1.96387 0.00914838 18 4 1 -1.20509e-09 
1.29079 -0.673111 -0.000534019 0.0025 0.546552 0.429339 1.96385 0.00914826 19 4 1 2.58144e-09 
1.29537 -0.673115 -0.000433316 0.0025 0.546559 0.42934 1.96384 0.00914815 20 4 1 9.5751e-10 
1.29994 -0.673119 -0.000304828 0.0025 0.546564 0.429341 1.96382 0.00914805 21 4 1 9.12548e-10 
1.30451 -0.673122 -0.000161794 0.0025 0.54657 0.429342 1.9638 0.00914797 22 4 1 7.44913e-10 
1.30909 -0.673124 -1.74511e-05 0.0025 0.546574 0.429343 1.96379 0.00914789 23 4 1 -4.83545e-10 
1.31366 -0.673126 0.000117287 0.0025 0.546578 0.429342 1.96377 0.00914782 24 4 1 1.1959e-09 
1.31824 -0.673128 0.000235143 0.0025 0.546581 0.429342 1.96376 0.00914777 25 4 1 5.04587e-10 
1.32281 -0.673129 0.0003327 0.0025 0.546584 0.429342 1.96375 0.00914772 26 4 1 -5.33521e-10 
1.32738 -0.67313 0.000409808 0.0025 0.546587 0.429341 1.96373 0.00914768 27 4 1 1.11041e-09 
1.33196 -0.67313 0.000468606 0.0025 0.546589 0.42934 1.96372 0.00914764 28 4 1 8.05815e-10 
1.33653 -0.673131 0.000512527 0.0025 0.546591 0.429338 1.96371 0.00914761 29 4 1 -7.86839e-10 
1.34111 -0.673132 0.000545453 0.0025 0.546592 0.429337 1.9637 0.00914759 30 4 1 5.11563e-10 
1.34568 -0.673133 0.000571024 0.0025 0.546594 0.429336 1.96369 0.00914756 31 4 1 1.98577e-09 
1.35025 -0.673134 0.000592108 0.0025 0.546594 0.429334 1.96368 0.00914755 32 4 1 -8.3465e-10 
1.35483 -0.673135 0.000610539 0.0025 0.546595 0.429333 1.96367 0.00914753 33 4 1 -8.05623e-10 
1.3594 -0.673136 0.000627231 0.0025 0.546596 0.429331 1.96366 0.00914752 34 4 1 2.13915e-09 
1.36397 -0.673137 0.000642628 0.0025 0.546597 0.429329 1.96365 0.00914751 35 4 1 -1.85044e-10 
1.36855 -0.673139 0.000657179 0.0025 0.546597 0.429328 1.96364 0.00914751 36 4 1 -8.49422e-10 
1.37312 -0.673141 0.000671576 0.0025 0.546597 0.429326 1.96363 0.0091475 37 4 1 1.46296e-09 
1.3777 -0.673143 0.000686776 0.0025 0.546597 0.429324 1.96362 0.0091475 38 3 1 1.37586e-10 
1.38227 -0.673145 0.000704169 0.0025 0.546597 0.429322 1.96361 0.0091475 39 4 1 -6.84682e-10 
1.38684 -0.673148 0.000726055 0.0025 0.546597 0.429321 1.9636 0.0091475 40 4 1 7.54351e-10 
1.39142 -0.673151 0.000756008 0.0025 0.546597 0.429319 1.9636 0.00914751 41 4 1 4.68253e-10 
1.39599 -0.673154 0.000798214 0.0025 0.546597 0.429317 1.96359 0.00914751 42 4 1 -6.24915e-10 
1.40056 -0.673158 0.000855415 0.0025 0.546596 0.429314 1.96358 0.00914752 43 4 1 -3.68985e-11 
1.40514 -0.673161 0.000926602 0.0025 0.546595 0.429312 1.96357 0.00914754 44 4 1 9.07561e-10 
1.40971 -0.673165 0.00100662 0.0025 0.546594 0.42931 1.96357 0.00914756 45 4 1 -4.47747e-10 
1.41429 -0.67317 0.00108906 0.0025 0.546593 0.429307 1.96356 0.00914758 46 4 1 -8.04213e-10 
1.41886 -0.673174 0.00117104 0.0025 0.546591 0.429304 1.96355 0.0091476 47 4 1 5.04426e-10 
1.42343 -0.673179 0.00125641 0.0025 0.54659 0.429301 1.96354 0.00914763 48 4 1 1.75832e-10 
1.42801 -0.673184 0.00135397 0.0025 0.546587 0.429297 1.96354 0.00914767 49 4 1 -7.42186e-10 
1.43258 -0.67319 0.00147122 0.0025 0.546585 0.429294 1.96353 0.0091477 50 4 1 -4.73267e-10 
1.43715 -0.673196 0.0016077 0.0025 0.546583 0.42929 1.96352 0.00914775 51 4 1 4.22883e-10 
1.44173 -0.673202 0.00175348 0.0025 0.54658 0.429286 1.96351 0.0091478 52 4 1 -3.19101e-10 
1.4463 -0.673209 0.00189478 0.0025 0.546576 0.429281 1.9635 0.00914786 53 4 1 -1.05712e-09 
1.45088 -0.673216 0.0020236 0.0025 0.546572 0.429276 1.96349 0.00914792 54 4 1 -1.86371e-10 
1.45545 -0.673224 0.00214473 0.0025 0.546568 0.42927 1.96348 0.00914799 55 4 1 4.302e-10 
1.46002 -0.673233 0.00227473 0.0025 0.546564 0.429265 1.96347 0.00914806 56 4 1 -6.27128e-10 
1.4646 -0.673243 0.00243341 0.0025 0.546559 0.429258 1.96346 0.00914814 57 4 1 -1.09309e-09 
1.46917 -0.673253 0.00263379 0.0025 0.546554 0.429252 1.96345 0.00914823 58 4 1 2.28494e-11 
1.47375 -0.673265 0.00287681 0.0025 0.546548 0.429245 1.96343 0.00914833 59 4 1 -3.66103e-10 
1.47832 -0.673277 0.0031528 0.0025 0.546542 0.429237 1.96342 0.00914843 60 4 1 -1.16328e-09 
1.4829 -0.673291 0.00344688 0.0025 0.546535 0.429228 1.96341 0.00914855 61 4 1 -1.0328e-09 
1.48747 -0.673306 0.00374632 0.0025 0.546527 0.429219 1.96339 0.00914868 62 4 1 -4.16923e-10 
1.49204 -0.673322 0.00404976 0.0025 0.546518 0.429208 1.96338 0.00914883 63 4 1 -8.04105e-10 
1.49662 -0.673341 0.00437576 0.0025 0.546509 0.429197 1.96336 0.00914899 64 4 1 -1.32469e-09 
-0.498807 -0.673361 0.00476203 0.0025 0.546498 0.429185 1.96334 0.00914916 65 4 1 -1.10937e-09 
-0.494233 -0.673383 0.00524861 0.0025 0.546487 0.429172 1.96332 0.00914935 66 4 1 -1.28962e-09 
-0.489658 -0.673408 0.00585099 0.0025 0.546474 0.429157 1.9633 0.00914956 67 4 1 -1.82622e-09 
-0.485083 -0.673435 0.00654337 0.0025 0.54646 0.429141 1.96328 0.0091498 68 4 1 -2.12383e-09 
-0.480508 -0.673464 0.00727313 0.0025 0.546444 0.429123 1.96325 0.00915007 69 4 1 -1.96483e-09 
-0.475933 -0.673497 0.00800647 0.0025 0.546426 0.429103 1.96323 0.00915037 70 4 1 -2.2261e-09 
-0.471358 -0.673534 0.00877373 0.0025 0.546406 0.429081 1.96319 0.0091507 71 4 1 -2.58287e-09 
-0.466782 -0.673576 0.00966968 0.0025 0.546384 0.429056 1.96316 0.00915106 72 4 1 -2.70239e-09 
-0.462207 -0.673622 0.0107945 0.0025 0.54636 0.429029 1.96312 0.00915147 73 4 1 -3.29283e-09 
-0.457631 -0.673674 0.012175 0.0025 0.546333 0.428998 1.96308 0.00915193 74 4 1 -4.08846e-09 
-0.453055 -0.673732 0.013733 0.0025 0.546302 0.428964 1.96304 0.00915244 75 4 1 -4.47572e-09 
-0.448478 -0.673795 0.015338 0.0025 0.546268 0.428926 1.96298 0.00915301 76 4 1 -4.51453e-09 
-0.443902 -0.673866 0.0169145 0.0025 0.54623 0.428883 1.96293 0.00915366 77 4 1 -4.44857e-09 
-0.439325 -0.673944 0.0185131 0.0025 0.546188 0.428837 1.96286 0.00915436 78 4 1 -4.53001e-09 
-0.434747 -0.674032 0.0202606 0.0025 0.546142 0.428786 1.9628 0.00915513 79 4 1 -4.71126e-09 
-0.430169 -0.674128 0.0221972 0.0025 0.546092 0.42873 1.96272 0.00915597 80 4 1 -4.79725e-09 
-0.425591 -0.674232 0.0241721 0.0025 0.546037 0.42867 1.96264 0.00915688 81 4 1 -4.51179e-09 
-0.421013 -0.674343 0.0259612 0.0025 0.545979 0.428606 1.96256 0.00915786 82 4 1 -3.62701e-09 
-0.416433 -0.67446 0.0273969 0.0025 0.545918 0.428538 1.96247 0.00915888 83 4 1 -2.13871e-09 
-0.411854 -0.67458 0.0282715 0.0025 0.545855 0.428469 1.96237 0.00915995 84 4 1 -6.24513e-11 
-0.407273 -0.674702 0.0283416 0.0025 0.545791 0.428399 1.96228 0.00916101 85 4 1 2.58043e-09 
-0.402693 -0.674823 0.027462 0.0025 0.545729 0.428331 1.96219 0.00916205 86 4 1 5.59723e-09 
-0.398111 -0.674938 0.0255173 0.0025 0.545672 0.428268 1.96211 0.00916301 87 4 1 8.73639e-09 
-0.39353 -0.675042 0.0226142 0.0025 0.545622 0.428212 1.96203 0.00916385 88 4 1 1.17878e-08 
-0.388948 -0.675129 0.0184127 0.0025 0.545582 0.428168 1.96198 0.00916453 89 4 1 1.54616e-08 
-0.384365 -0.675191 0.0122271 0.0025 0.545554 0.428137 1.96193 0.00916499 90 4 1 1.59716e-08 
-0.379783 -0.675228 0.00952191 0.0025 0.54554 0.428122 1.96191 0.00916524 91 5 1 2.48198e-08 
-0.3752 -0.675222 -0.0062366 0.0025 0.545546 0.428129 1.96192 0.00916513 92 4 1 4.63172e-08 
-0.370617 -0.675148 -0.0222667 0.0025 0.545592 0.428181 1.96199 0.00916436 93 4 1 9.93137e-08 
-0.366036 -0.674963 -0.068342 0.0025 0.545721 0.428328 1.96217 0.0091622 94 4 1 2.38246e-07 
-0.361455 -0.674412 -0.193832 0.0025 0.546043 0.428686 1.96263 0.00915679 95 4 1 3.74151e-07 
-0.356879 -0.673223 -0.338791 0.0025 0.546658 0.429363 1.96351 0.00914649 96 4 1 4.186e-07 
-0.352309 -0.671465 -0.4669 0.0025 0.547585 0.430384 1.96484 0.00913101 97 4 1 4.93337e-07 
-0.347748 -0.66908 -0.631065 0.0025 0.548855 0.431787 1.96667 0.00910987 98 4 1 6.77746e-07 
-0.343199 -0.665854 -0.861228 0.0025 0.550566 0.433676 1.96911 0.00908157 99 4 1 8.6114e-07 
-0.338666 -0.661611 -1.10548 0.0025 0.552787 0.436127 1.97229 0.00904508 100 4 1 9.33919e-07 
-0.334154 -0.656417 -1.31156 0.0025 0.555491 0.439111 1.97614 0.00900105 101 4 1 8.81466e-07 
-0.329665 -0.650541 -1.44066 0.0025 0.558561 0.442507 1.98051 0.00895157 102 4 1 7.73873e-07 
-0.325202 -0.644298 -1.51102 0.0025 0.561862 0.446169 1.98518 0.00889898 103 4 1 7.24595e-07 
-0.320766 -0.637823 -1.57114 0.0025 0.565319 0.450017 1.99006 0.00884456 104 4 1 7.5408e-07 
-0.316357 -0.631126 -1.64086 0.0025 0.568921 0.454037 1.99512 0.00878856 105 4 1 8.25151e-07 
-0.311977 -0.624146 -1.72746 0.0025 0.572688 0.458252 2.00039 0.00873076 106 4 1 8.93411e-07 
-0.307627 -0.616879 -1.8157 0.0025 0.576633 0.462677 2.00589 0.00867103 107 4 1 9.28113e-07 
-0.303306 -0.609317 -1.89396 0.0025 0.580744 0.4673 2.0116 0.00860964 108 4 1 9.16156e-07 
-0.299017 -0.601565 -1.94529 0.0025 0.584984 0.472082 2.01746 0.00854724 109 4 1 8.7614e-07 
-0.294759 -0.593719 -1.97711 0.0025 0.589304 0.476968 2.02341 0.00848458 110 4 1 8.23845e-07 
-0.290532 -0.585859 -1.98669 0.0025 0.59366 0.481908 2.02938 0.00842234 111 4 1 7.70261e-07 
-0.286336 -0.578052 -1.98518 0.0025 0.598013 0.486861 2.03532 0.00836103 112 4 1 7.0779e-07 
-0.282171 -0.570367 -1.96121 0.0025 0.60233 0.491788 2.04118 0.0083011 113 4 1 6.634e-07 
-0.278035 -0.562817 -1.94367 0.0025 0.606595 0.496669 2.04695 0.00824273 114 4 1 6.43512e-07 
-0.273928 -0.555406 -1.92554 0.0025 0.610811 0.501509 2.05263 0.00818584 115 4 1 6.3555e-07 
-0.269849 -0.548087 -1.91971 0.0025 0.614987 0.506315 2.05823 0.00813026 116 4 1 6.13428e-07 
-0.265798 -0.540883 -1.89956 0.0025 0.619122 0.511087 2.06376 0.00807595 117 4 1 5.80501e-07 
-0.261773 -0.533831 -1.88065 0.0025 0.623208 0.515816 2.06919 0.00802301 118 4 1 5.7807e-07 
-0.257775 -0.526873 -1.87514 0.0025 0.627256 0.520513 2.07456 0.00797123 119 4 1 5.69172e-07 
-0.253802 -0.519977 -1.86318 0.0025 0.631272 0.525184 2.07986 0.00792051 120 4 1 5.40735e-07 
-0.249854 -0.513204 -1.84416 0.0025 0.635249 0.529823 2.08509 0.00787093 121 4 1 5.45809e-07 
-0.245931 -0.506513 -1.84796 0.0025 0.6392 0.534443 2.09027 0.00782228 122 4 1 5.53028e-07 
-0.242032 -0.499857 -1.84591 0.0025 0.64314 0.539059 2.09541 0.00777436 123 4 1 5.32929e-07 
-0.238156 -0.493272 -1.83746 0.0025 0.64706 0.543666 2.10051 0.00772725 124 4 1 5.30663e-07 
-0.234304 -0.486749 -1.83887 0.0025 0.650968 0.548269 2.10558 0.00768087 125 4 1 5.56485e-07 
-0.230475 -0.480234 -1.85775 0.0025 0.654886 0.552894 2.11064 0.00763492 126 4 1 5.70207e-07 
-0.226669 -0.473708 -1.87142 0.0025 0.658826 0.557557 2.11571 0.00758926 127 4 1 5.7457e-07 
-0.222886 -0.46717 -1.89091 0.0025 0.662791 0.562261 2.12079 0.00754385 128 4 1 5.75656e-07 
-0.219126 -0.460632 -1.90257 0.0025 0.666782 0.567006 2.12589 0.0074987 129 4 1 5.92225e-07 
-0.215387 -0.454064 -1.93269 0.0025 0.670808 0.571806 2.13101 0.00745369 130 4 1 6.2135e-07 
-0.211672 -0.447444 -1.96653 0.0025 0.674887 0.576679 2.13619 0.00740865 131 4 1 6.27501e-07 
-0.207979 -0.440755 -1.99564 0.0025 0.679017 0.581625 2.14141 0.00736358 132 4 1 6.07313e-07 
-0.204308 -0.434044 -2.00565 0.0025 0.68318 0.586622 2.14665 0.00731872 133 4 1 5.87385e-07 
-0.20066 -0.427372 -2.01431 0.0025 0.687358 0.591651 2.15189 0.00727423 134 4 1 6.15239e-07 
-0.197034 -0.420656 -2.05216 0.0025 0.691569 0.596733 2.15715 0.00722993 135 4 1 6.09608e-07 
-0.19343 -0.413922 -2.05698 0.0025 0.69581 0.601861 2.16243 0.00718587 136 4 1 5.71313e-07 
-0.189848 -0.407231 -2.05735 0.0025 0.700052 0.607004 2.1677 0.00714232 137 4 1 5.76077e-07 
-0.186287 -0.400559 -2.07249 0.0025 0.7043 0.612166 2.17295 0.00709925 138 4 1 5.73191e-07 
-0.182749 -0.393906 -2.07651 0.0025 0.708555 0.617349 2.17819 0.00705662 139 4 1 5.54108e-07 
-0.179231 -0.387286 -2.0777 0.0025 0.712806 0.62254 2.18341 0.00701453 140 4 1 5.46941e-07 
-0.175734 -0.380725 -2.08089 0.0025 0.717051 0.627737 2.1886 0.006973 141 4 1 5.31431e-07 
-0.172258 -0.374202 -2.07414 0.0025 0.721286 0.632934 2.19376 0.00693206 142 4 1 5.38051e-07 
-0.168802 -0.36772 -2.08984 0.0025 0.725519 0.63814 2.1989 0.00689162 143 4 1 5.35443e-07 
-0.165366 -0.361257 -2.08705 0.0025 0.729753 0.64336 2.20402 0.00685163 144 4 1 5.24689e-07 
-0.16195 -0.354826 -2.09625 0.0025 0.733983 0.648587 2.20912 0.00681214 145 4 1 5.12435e-07 
-0.158554 -0.348442 -2.08814 0.0025 0.738205 0.653815 2.2142 0.00677318 146 4 1 4.97752e-07 
-0.155177 -0.342106 -2.08858 0.0025 0.742413 0.659039 2.21924 0.0067348 147 4 1 4.97015e-07 
-0.151819 -0.335819 -2.08728 0.0025 0.746612 0.664263 2.22425 0.00669692 148 4 1 5.1109e-07 
-0.14848 -0.329549 -2.10774 0.0025 0.750816 0.669506 2.22925 0.00665942 149 4 1 5.07125e-07 
-0.14516 -0.323282 -2.10757 0.0025 0.755026 0.674765 2.23424 0.00662229 150 4 1 4.56594e-07 
-0.141858 -0.317104 -2.08021 0.0025 0.759208 0.680004 2.23918 0.00658581 151 4 1 4.65994e-07 
-0.138574 -0.310996 -2.09625 0.0025 0.763374 0.685234 2.24409 0.00654987 152 4 1 4.98649e-07 
-0.135308 -0.304864 -2.11192 0.0025 0.767554 0.690494 2.249 0.0065142 153 4 1 4.91058e-07 
-0.132059 -0.298746 -2.12157 0.0025 0.771747 0.695779 2.2539 0.00647881 154 4 1 4.6592e-07 
-0.128829 -0.292654 -2.1134 0.0025 0.775932 0.701066 2.25878 0.00644387 155 4 1 4.30529e-07 
-0.125616 -0.286661 -2.09205 0.0025 0.780088 0.706329 2.26361 0.00640953 156 4 1 4.45486e-07 
-0.122419 -0.280725 -2.10707 0.0025 0.784232 0.711589 2.26841 0.00637566 157 4 1 4.86194e-07 
-0.11924 -0.274775 -2.13507 0.0025 0.788401 0.71689 2.27323 0.00634195 158 4 1 4.70637e-07 
-0.116077 -0.268842 -2.13328 0.0025 0.792584 0.72222 2.27805 0.00630848 159 4 1 4.5114e-07 
-0.112931 -0.262984 -2.13878 0.0025 0.796765 0.727559 2.28285 0.00627538 160 4 1 4.44617e-07 
-0.109802 -0.257214 -2.13323 0.0025 0.800944 0.732907 2.28763 0.00624264 161 4 1 4.623e-07 
-0.106689 -0.251558 -2.15773 0.0025 0.805137 0.738287 2.29241 0.00621012 162 4 1 5.24032e-07 
-0.103592 -0.245924 -2.21455 0.0025 0.809393 0.743756 2.29725 0.00617747 163 4 1 5.32463e-07 
-0.100511 -0.240361 -2.23819 0.0025 0.813715 0.749323 2.30215 0.00614466 164 4 1 5.45945e-07 
-0.0974469 -0.234956 -2.29135 0.0025 0.818105 0.754989 2.30711 0.00611168 165 4 1 5.67058e-07 
-0.0943993 -0.229715 -2.32524 0.0025 0.822573 0.760769 2.31214 0.00607849 166 4 1 5.98298e-07 
-0.0913684 -0.224766 -2.39182 0.0025 0.827136 0.766685 2.31726 0.00604496 167 4 1 6.89954e-07 
-0.0883543 -0.219981 -2.50019 0.0025 0.831849 0.77281 2.32253 0.0060107 168 4 1 7.37113e-07 
-0.0853576 -0.215421 -2.58774 0.0025 0.836734 0.779172 2.32798 0.00597561 169 4 1 7.8101e-07 
-0.0823787 -0.211135 -2.70319 0.0025 0.841796 0.785778 2.3336 0.00593968 170 4 1 7.98783e-07 
-0.0794179 -0.207067 -2.77943 0.0025 0.84702 0.792611 2.33938 0.00590305 171 4 1 7.53179e-07 
-0.0764756 -0.203327 -2.81681 0.0025 0.852347 0.799598 2.34526 0.00586615 172 4 1 7.66688e-07 
-0.0735517 -0.199734 -2.88773 0.0025 0.857766 0.806724 2.35121 0.00582909 173 4 1 7.60335e-07 
-0.0706464 -0.196201 -2.91353 0.0025 0.863265 0.813973 2.35723 0.00579197 174 4 1 7.71584e-07 
-0.0677597 -0.192754 -2.98305 0.0025 0.868837 0.821338 2.3633 0.00575482 175 4 1 7.77604e-07 
-0.0648915 -0.189288 -3.01992 0.0025 0.874479 0.828812 2.36943 0.00571769 176 4 1 7.00244e-07 
-0.0620419 -0.186035 -3.0285 0.0025 0.880124 0.836304 2.37554 0.00568102 177 4 1 5.44216e-07 
-0.0592104 -0.182858 -2.94019 0.0025 0.885629 0.843623 2.38148 0.0056457 178 4 1 8.79848e-08 
-0.0563962 -0.179066 -2.50719 0.0025 0.890646 0.850305 2.38687 0.00561391 179 4 1 -4.612e-07 
-0.0535965 -0.173944 -1.88006 0.0025 0.894805 0.85588 2.39133 0.00558781 180 4 1 -3.61341e-07 
-0.0508083 -0.167661 -1.7318 0.0025 0.898325 0.860624 2.39507 0.00556592 181 4 1 3.52327e-07 
-0.0480306 -0.161605 -2.15443 0.0025 0.901887 0.865392 2.39885 0.00554393 182 4 1 2.17324e-07 
-0.0452644 -0.156216 -1.85545 0.0025 0.90531 0.869934 2.40252 0.00552297 183 4 1 -1.33869e-06 
-0.0425076 -0.148808 -0.22221 0.0025 0.907206 0.872486 2.40456 0.00551143 184 4 1 -1.80278e-06 
-0.0397529 -0.13787 0.648299 0.0025 0.90731 0.872721 2.40463 0.0055108 185 4 1 3.65733e-07 
-0.0369968 -0.127712 -0.926578 0.0025 0.907852 0.873487 2.40513 0.0055075 186 4 1 1.98759e-06 
-0.0342454 -0.12118 -2.07155 0.0025 0.910138 0.876463 2.4076 0.00549367 187 4 1 -4.5906e-07 
-0.0315031 -0.113456 -0.134652 0.0025 0.91181 0.878669 2.40945 0.0054836 188 3 1 -2.43377e-06 
-0.0287618 -0.101445 1.38045 0.0025 0.911152 0.877891 2.40871 0.00548756 189 4 1 5.78996e-08 
-0.0260155 -0.0906337 -0.388969 0.0025 0.910623 0.877226 2.40806 0.00549075 190 5 1 2.04638e-06 
-0.0232711 -0.0831025 -1.45376 0.0025 0.911939 0.878908 2.4095 0.00548283 191 4 1 -2.04645e-07 
-0.0205327 -0.0744401 -0.00691515 0.0025 0.913029 0.880355 2.41072 0.00547628 192 3 1 -1.39048e-06 
-0.0177948 -0.0634206 0.491518 0.0025 0.912836 0.880158 2.41048 0.00547743 193 4 1 1.62015e-07 
-0.0150553 -0.0533856 -0.27733 0.0025 0.912753 0.880053 2.41037 0.00547793 194 5 1 5.77337e-07 
-0.0123169 -0.0436841 -0.346786 0.0025 0.913179 0.880595 2.41085 0.00547538 195 4 1 -3.34392e-07 
-0.00957989 -0.0346184 0.193095 0.0025 0.913306 0.880769 2.41099 0.00547462 196 3 1 -3.24648e-07 
-0.00684225 -0.0249331 0.166198 0.0025 0.913109 0.880537 2.41077 0.00547579 197 5 1 3.52394e-07 
-0.00410409 -0.0145935 -0.344117 0.0025 0.913269 0.880758 2.41095 0.00547484 198 4 1 4.17417e-07 
-0.00136741 -0.00465458 -0.461267 0.0025 0.913825 0.881467 2.41156 0.0054715 199 3 1 -5.55633e-07 
0.00136741 0.00465458 0.461267 0.0025 0.913825 0.881467 2.41156 0.0054715 200 3 1 -5.55633e-07 
0.00410409 0.0145935 0.344117 0.0025 0.913269 0.880758 2.41095 0.00547484 201 4 1 4.17417e-07 
0.00684225 0.0249331 -0.166198 0.0025 0.913109 0.880537 2.41077 0.00547579 202 5 1 3.52394e-07 
0.00957989 0.0346184 -0.193095 0.0025 0.913306 0.880769 2.41099 0.00547462 203 3 1 -3.24648e-07 
0.0123169 0.0436841 0.346786 0.0025 0.913179 0.880595 2.41085 0.00547538 204 4 1 -3.34392e-07 
0.0150553 0.0533856 0.27733 0.0025 0.912753 0.880053 2.41037 0.00547793 205 5 1 5.77337e-07 
0.0177948 0.0634206 -0.491518 0.0025 0.912836 0.880158 2.41048 0.00547743 206 4 1 1.62015e-07 
0.0205327 0.0744401 0.00691515 0.0025 0.913029 0.880355 2.41072 0.00547628 207 3 1 -1.39048e-06 
0.0232711 0.0831025 1.45376 0.0025 0.911939 0.878908 2.4095 0.00548283 208 4 1 -2.04645e-07 
0.0260155 0.0906337 0.388969 0.0025 0.910623 0.877226 2.40806 0.00549075 209 5 1 2.04638e-06 
0.0287618 0.101445 -1.38045 0.0025 0.911152 0.877891 2.40871 0.00548756 210 4 1 5.78996e-08 
