# Time [s]: 0.440022
# Columns: pos [m], vel [m/s], acc [m/s^2], mass [kg], dens [kg/m^3], pres [Pa], ene [J/kg], sml [m], id, neighbor, alpha, gradh, ...additional?
1.20605 -0.673076 1.29653e-06 0.0025 0.51106 0.432737 2.15252 0.00978359 0 4 1 -0.000134225 
1.21083 -0.673077 8.58013e-07 0.0025 0.536918 0.426201 1.95005 0.00931241 1 4 1 0.000179254 
1.21537 -0.673077 9.0359e-07 0.0025 0.548248 0.430871 1.96852 0.00911996 2 3 1 -1.90585e-05 
1.21995 -0.673078 1.34287e-06 0.0025 0.545984 0.429207 1.96466 0.00915778 3 5 1 3.4856e-06 
1.22453 -0.673078 1.67113e-06 0.0025 0.546382 0.429362 1.9646 0.0091511 4 4 1 -1.38678e-07 
1.2291 -0.673079 9.27403e-07 0.0025 0.546393 0.429333 1.96437 0.00915091 5 4 1 1.43744e-07 
1.23368 -0.67308 -2.24426e-06 0.0025 0.546417 0.429332 1.96431 0.00915052 6 4 1 -3.48758e-09 
1.23825 -0.673081 -9.58979e-06 0.0025 0.54643 0.42933 1.96425 0.00915029 7 4 1 8.27237e-09 
1.24283 -0.673081 -2.32999e-05 0.0025 0.546445 0.42933 1.96419 0.00915005 8 4 1 4.82081e-09 
1.2474 -0.673082 -4.60478e-05 0.0025 0.546458 0.429329 1.96415 0.00914984 9 4 1 5.55899e-09 
1.25198 -0.673084 -8.08296e-05 0.0025 0.54647 0.42933 1.96411 0.00914964 10 4 1 -2.12308e-09 
1.25655 -0.673085 -0.000130396 0.0025 0.546481 0.42933 1.96406 0.00914945 11 4 1 4.88501e-09 
1.26113 -0.673087 -0.000196194 0.0025 0.546492 0.42933 1.96403 0.00914926 12 4 1 3.04987e-09 
1.2657 -0.673089 -0.000276995 0.0025 0.546502 0.42933 1.96399 0.0091491 13 4 1 3.80926e-09 
1.27028 -0.673091 -0.000367703 0.0025 0.546511 0.429331 1.96396 0.00914895 14 4 1 2.38273e-09 
1.27485 -0.673094 -0.000458976 0.0025 0.546519 0.429332 1.96394 0.00914881 15 4 1 -1.31676e-09 
1.27943 -0.673097 -0.000538141 0.0025 0.546528 0.429333 1.96391 0.00914866 16 4 1 5.13783e-09 
1.284 -0.673101 -0.000591473 0.0025 0.546536 0.429334 1.96389 0.00914853 17 4 1 1.65315e-09 
1.28857 -0.673105 -0.000607263 0.0025 0.546543 0.429336 1.96387 0.00914841 18 4 1 -1.11534e-09 
1.29315 -0.673109 -0.00057874 0.0025 0.54655 0.429337 1.96385 0.00914829 19 4 1 2.66881e-09 
1.29772 -0.673113 -0.000505844 0.0025 0.546557 0.429339 1.96383 0.00914818 20 4 1 1.02933e-09 
1.3023 -0.673117 -0.000395247 0.0025 0.546563 0.42934 1.96382 0.00914808 21 4 1 9.59309e-10 
1.30687 -0.673121 -0.000258678 0.0025 0.546568 0.429341 1.9638 0.00914799 22 4 1 7.62677e-10 
1.31144 -0.673124 -0.000110166 0.0025 0.546573 0.429341 1.96379 0.00914791 23 4 1 -4.93048e-10 
1.31602 -0.673126 3.68901e-05 0.0025 0.546577 0.429342 1.96377 0.00914784 24 4 1 1.16511e-09 
1.32059 -0.673128 0.000171964 0.0025 0.546581 0.429341 1.96376 0.00914778 25 4 1 4.60534e-10 
1.32517 -0.67313 0.00028852 0.0025 0.546584 0.429341 1.96375 0.00914773 26 4 1 -5.82928e-10 
1.32974 -0.673131 0.00038398 0.0025 0.546587 0.42934 1.96373 0.00914768 27 4 1 1.062e-09 
1.33431 -0.673132 0.000458926 0.0025 0.546589 0.429339 1.96372 0.00914765 28 4 1 7.62642e-10 
1.33889 -0.673133 0.000516021 0.0025 0.54659 0.429338 1.96371 0.00914762 29 4 1 -8.2257e-10 
1.34346 -0.673134 0.000559013 0.0025 0.546592 0.429337 1.9637 0.00914759 30 4 1 4.83745e-10 
1.34804 -0.673135 0.000591934 0.0025 0.546593 0.429335 1.96369 0.00914757 31 4 1 1.96492e-09 
1.35261 -0.673136 0.000618434 0.0025 0.546594 0.429334 1.96368 0.00914756 32 4 1 -8.50447e-10 
1.35718 -0.673137 0.000641268 0.0025 0.546595 0.429332 1.96367 0.00914754 33 4 1 -8.18612e-10 
1.36176 -0.673138 0.000662078 0.0025 0.546596 0.42933 1.96366 0.00914753 34 4 1 2.12721e-09 
1.36633 -0.67314 0.0006816 0.0025 0.546596 0.429329 1.96365 0.00914752 35 4 1 -1.96745e-10 
1.3709 -0.673141 0.000700204 0.0025 0.546596 0.429327 1.96364 0.00914752 36 4 1 -8.60856e-10 
1.37548 -0.673143 0.000718405 0.0025 0.546597 0.429325 1.96363 0.00914751 37 3 1 1.45216e-09 
1.38005 -0.673145 0.000737018 0.0025 0.546597 0.429323 1.96362 0.00914752 38 4 1 1.27948e-10 
1.38463 -0.673148 0.000757081 0.0025 0.546596 0.429321 1.96361 0.00914752 39 4 1 -6.91983e-10 
1.3892 -0.673151 0.000780036 0.0025 0.546596 0.429319 1.9636 0.00914752 40 4 1 7.51542e-10 
1.39377 -0.673154 0.000808359 0.0025 0.546596 0.429317 1.9636 0.00914753 41 4 1 4.72103e-10 
1.39835 -0.673157 0.000846012 0.0025 0.546595 0.429315 1.96359 0.00914754 42 4 1 -6.14765e-10 
1.40292 -0.673161 0.000897589 0.0025 0.546594 0.429313 1.96358 0.00914755 43 4 1 -2.54643e-11 
1.40749 -0.673165 0.000965806 0.0025 0.546594 0.42931 1.96357 0.00914756 44 4 1 9.11755e-10 
1.41207 -0.673169 0.00104889 0.0025 0.546592 0.429308 1.96356 0.00914758 45 4 1 -4.57617e-10 
1.41664 -0.673173 0.0011405 0.0025 0.546591 0.429305 1.96356 0.00914761 46 4 1 -8.27266e-10 
1.42122 -0.673178 0.0012335 0.0025 0.546589 0.429302 1.96355 0.00914764 47 4 1 4.7812e-10 
1.42579 -0.673183 0.00132563 0.0025 0.546587 0.429298 1.96354 0.00914767 48 4 1 1.59096e-10 
1.43036 -0.673189 0.00142256 0.0025 0.546585 0.429295 1.96353 0.00914771 49 4 1 -7.43954e-10 
1.43494 -0.673195 0.00153502 0.0025 0.546583 0.429291 1.96352 0.00914775 50 4 1 -4.68593e-10 
1.43951 -0.673201 0.00167101 0.0025 0.54658 0.429287 1.96351 0.00914779 51 4 1 4.15134e-10 
1.44408 -0.673208 0.00182859 0.0025 0.546577 0.429282 1.9635 0.00914785 52 4 1 -3.55895e-10 
1.44866 -0.673215 0.00199537 0.0025 0.546573 0.429278 1.9635 0.00914791 53 4 1 -1.12435e-09 
1.45323 -0.673223 0.00215606 0.0025 0.546569 0.429272 1.96349 0.00914797 54 4 1 -2.66872e-10 
1.45781 -0.673232 0.00230366 0.0025 0.546565 0.429266 1.96347 0.00914805 55 4 1 3.62262e-10 
1.46238 -0.673241 0.00244633 0.0025 0.54656 0.42926 1.96346 0.00914813 56 4 1 -6.64872e-10 
1.46695 -0.673251 0.00260444 0.0025 0.546555 0.429254 1.96345 0.00914822 57 4 1 -1.10277e-09 
1.47153 -0.673263 0.00279981 0.0025 0.546549 0.429246 1.96344 0.00914831 58 4 1 2.10488e-11 
1.4761 -0.673275 0.00304481 0.0025 0.546543 0.429239 1.96343 0.00914841 59 4 1 -3.86404e-10 
1.48068 -0.673289 0.00333831 0.0025 0.546536 0.42923 1.96341 0.00914853 60 4 1 -1.22266e-09 
1.48525 -0.673304 0.00366882 0.0025 0.546528 0.429221 1.9634 0.00914866 61 4 1 -1.13919e-09 
1.48983 -0.67332 0.00402071 0.0025 0.54652 0.429211 1.96338 0.0091488 62 4 1 -5.6134e-10 
1.4944 -0.673337 0.00438169 0.0025 0.546511 0.4292 1.96337 0.00914895 63 4 1 -9.58361e-10 
1.49898 -0.673357 0.00475296 0.0025 0.5465 0.429188 1.96335 0.00914913 64 4 1 -1.44971e-09 
-0.49645 -0.673378 0.00515883 0.0025 0.546489 0.429175 1.96333 0.00914932 65 4 1 -1.1807e-09 
-0.491876 -0.673402 0.00564467 0.0025 0.546477 0.429161 1.96331 0.00914952 66 4 1 -1.32756e-09 
-0.487301 -0.673429 0.00625565 0.0025 0.546463 0.429145 1.96329 0.00914975 67 4 1 -1.90146e-09 
-0.482726 -0.673458 0.0070052 0.0025 0.546448 0.429128 1.96326 0.00915001 68 4 1 -2.31865e-09 
-0.478151 -0.673491 0.0078582 0.0025 0.54643 0.429108 1.96323 0.0091503 69 4 1 -2.30515e-09 
-0.473576 -0.673526 0.0087523 0.0025 0.546411 0.429086 1.9632 0.00915062 70 4 1 -2.63783e-09 
-0.469 -0.673566 0.00965426 0.0025 0.546389 0.429062 1.96317 0.00915098 71 4 1 -2.92749e-09 
-0.464425 -0.673611 0.0106096 0.0025 0.546365 0.429035 1.96313 0.00915139 72 4 1 -2.88459e-09 
-0.459849 -0.673662 0.0117326 0.0025 0.546339 0.429005 1.96309 0.00915183 73 4 1 -3.35528e-09 
-0.455273 -0.673719 0.0131286 0.0025 0.546309 0.428972 1.96305 0.00915233 74 4 1 -4.19923e-09 
-0.450697 -0.673782 0.0148035 0.0025 0.546276 0.428935 1.963 0.00915288 75 4 1 -4.79429e-09 
-0.44612 -0.673851 0.0166381 0.0025 0.546239 0.428894 1.96294 0.0091535 76 4 1 -5.03002e-09 
-0.441543 -0.673927 0.0184632 0.0025 0.546197 0.428848 1.96288 0.0091542 77 4 1 -4.93122e-09 
-0.436966 -0.674012 0.020186 0.0025 0.546152 0.428797 1.96281 0.00915497 78 4 1 -4.67204e-09 
-0.432388 -0.674106 0.0218635 0.0025 0.546102 0.428742 1.96274 0.0091558 79 4 1 -4.38638e-09 
-0.42781 -0.674208 0.0236245 0.0025 0.546048 0.428683 1.96266 0.0091567 80 4 1 -4.17726e-09 
-0.423231 -0.674319 0.0254499 0.0025 0.545991 0.42862 1.96258 0.00915766 81 4 1 -3.79442e-09 
-0.418652 -0.674436 0.0270702 0.0025 0.545931 0.428553 1.96249 0.00915867 82 4 1 -2.7257e-09 
-0.414073 -0.674557 0.028203 0.0025 0.545868 0.428483 1.9624 0.00915973 83 4 1 -9.10776e-10 
-0.409493 -0.67468 0.0286796 0.0025 0.545804 0.428413 1.9623 0.0091608 84 4 1 1.47744e-09 
-0.404912 -0.674802 0.028216 0.0025 0.545741 0.428343 1.96221 0.00916186 85 4 1 4.53163e-09 
-0.400331 -0.674918 0.0265771 0.0025 0.545682 0.428278 1.96212 0.00916285 86 4 1 7.9953e-09 
-0.395749 -0.675024 0.0236641 0.0025 0.545629 0.42822 1.96205 0.00916374 87 4 1 1.1735e-08 
-0.391167 -0.675116 0.0193732 0.0025 0.545585 0.428172 1.96198 0.00916447 88 4 1 1.54397e-08 
-0.386585 -0.675186 0.0139677 0.0025 0.545555 0.428138 1.96194 0.00916498 89 4 1 1.58056e-08 
-0.382002 -0.675227 0.00934391 0.0025 0.545538 0.428119 1.96191 0.00916527 90 5 1 2.47652e-08 
-0.377419 -0.67524 -0.00411883 0.0025 0.545541 0.428123 1.96191 0.00916522 91 4 1 3.74845e-08 
-0.372837 -0.675184 -0.015293 0.0025 0.545575 0.428163 1.96196 0.00916464 92 4 1 7.83958e-08 
-0.368255 -0.67503 -0.0517976 0.0025 0.545677 0.428279 1.96211 0.00916293 93 4 1 2.10067e-07 
-0.363674 -0.67457 -0.164787 0.0025 0.54595 0.428584 1.9625 0.00915836 94 4 1 3.61835e-07 
-0.359096 -0.673513 -0.316574 0.0025 0.546507 0.429198 1.9633 0.00914901 95 4 1 4.09687e-07 
-0.354525 -0.671865 -0.437554 0.0025 0.547374 0.430152 1.96454 0.00913452 96 4 1 4.69747e-07 
-0.349962 -0.669616 -0.596766 0.0025 0.548572 0.431476 1.96626 0.00911457 97 4 1 6.48679e-07 
-0.34541 -0.666558 -0.817661 0.0025 0.550198 0.433271 1.96859 0.00908763 98 4 1 8.44122e-07 
-0.340874 -0.662474 -1.06973 0.0025 0.552335 0.435629 1.97164 0.00905248 99 4 1 9.4348e-07 
-0.336358 -0.657412 -1.28794 0.0025 0.554974 0.438541 1.97541 0.00900942 100 4 1 9.03139e-07 
-0.331865 -0.651604 -1.42957 0.0025 0.558006 0.441892 1.97972 0.00896048 101 4 1 7.94262e-07 
-0.327397 -0.645378 -1.50619 0.0025 0.561288 0.445532 1.98437 0.00890808 102 4 1 7.36354e-07 
-0.322956 -0.638909 -1.5692 0.0025 0.564737 0.449369 1.98924 0.00885367 103 4 1 7.59758e-07 
-0.318543 -0.632209 -1.6395 0.0025 0.568337 0.453384 1.9943 0.0087976 104 4 1 8.3027e-07 
-0.314159 -0.625234 -1.72761 0.0025 0.572103 0.457597 1.99958 0.00873968 105 4 1 8.97711e-07 
-0.309804 -0.617949 -1.81492 0.0025 0.57605 0.462023 2.00508 0.0086798 106 4 1 9.42358e-07 
-0.305479 -0.610369 -1.90144 0.0025 0.580171 0.466655 2.01081 0.00861815 107 4 1 9.36254e-07 
-0.301185 -0.602578 -1.95474 0.0025 0.584431 0.471457 2.0167 0.00855533 108 4 1 8.91744e-07 
-0.296923 -0.594678 -1.98834 0.0025 0.588775 0.476369 2.02268 0.0084922 109 4 1 8.43814e-07 
-0.292693 -0.586751 -2.00222 0.0025 0.593161 0.481342 2.0287 0.00842941 110 4 1 7.88051e-07 
-0.288494 -0.578878 -2.00032 0.0025 0.597549 0.486332 2.03469 0.00836752 111 4 1 7.2299e-07 
-0.284325 -0.571113 -1.97822 0.0025 0.601902 0.491299 2.0406 0.008307 112 4 1 6.7942e-07 
-0.280187 -0.563504 -1.96107 0.0025 0.606205 0.496223 2.04643 0.00824803 113 4 1 6.55515e-07 
-0.276077 -0.55602 -1.94165 0.0025 0.610458 0.501104 2.05216 0.00819057 114 4 1 6.47006e-07 
-0.271996 -0.548646 -1.93678 0.0025 0.614671 0.505951 2.05781 0.00813444 115 4 1 6.20712e-07 
-0.267943 -0.541377 -1.91282 0.0025 0.61884 0.510761 2.06338 0.00807964 116 4 1 5.83815e-07 
-0.263916 -0.534253 -1.89198 0.0025 0.622954 0.515522 2.06886 0.00802628 117 4 1 5.8951e-07 
-0.259916 -0.527233 -1.89034 0.0025 0.627032 0.520253 2.07426 0.00797408 118 4 1 5.8589e-07 
-0.255942 -0.520293 -1.88103 0.0025 0.631083 0.524964 2.07961 0.00792289 119 4 1 5.4798e-07 
-0.251993 -0.513471 -1.85717 0.0025 0.635093 0.52964 2.08489 0.00787286 120 4 1 5.48358e-07 
-0.248069 -0.506727 -1.86004 0.0025 0.639072 0.534293 2.0901 0.00782384 121 4 1 5.62273e-07 
-0.244169 -0.500018 -1.86025 0.0025 0.64304 0.538942 2.09528 0.00777557 122 4 1 5.41346e-07 
-0.240294 -0.49339 -1.85005 0.0025 0.64699 0.543582 2.10042 0.0077281 123 4 1 5.38362e-07 
-0.236441 -0.48682 -1.85282 0.0025 0.650926 0.548219 2.10552 0.00768137 124 4 1 5.65015e-07 
-0.232612 -0.480259 -1.87117 0.0025 0.654873 0.552879 2.11062 0.00763507 125 4 1 5.78656e-07 
-0.228806 -0.473681 -1.88602 0.0025 0.658842 0.557576 2.11573 0.00758907 126 4 1 5.8199e-07 
-0.225023 -0.467101 -1.90364 0.0025 0.662836 0.562314 2.12085 0.00754334 127 4 1 5.82984e-07 
-0.221263 -0.460509 -1.91649 0.0025 0.666856 0.567094 2.12598 0.00749787 128 4 1 6.04357e-07 
-0.217525 -0.453895 -1.94937 0.0025 0.670913 0.571932 2.13115 0.00745253 129 4 1 6.31817e-07 
-0.21381 -0.447215 -1.98222 0.0025 0.675026 0.576845 2.13636 0.00740713 130 4 1 6.37448e-07 
-0.210118 -0.440473 -2.01302 0.0025 0.67919 0.581832 2.14162 0.00736171 131 4 1 6.15651e-07 
-0.206448 -0.433721 -2.02061 0.0025 0.683386 0.58687 2.14691 0.00731651 132 4 1 5.95766e-07 
-0.202801 -0.426992 -2.03145 0.0025 0.687597 0.591939 2.15219 0.00727171 133 4 1 6.27767e-07 
-0.199177 -0.42022 -2.07095 0.0025 0.691844 0.597065 2.15749 0.00722706 134 4 1 6.15624e-07 
-0.195574 -0.413431 -2.07121 0.0025 0.696119 0.602234 2.16282 0.00718268 135 4 1 5.79938e-07 
-0.191994 -0.406695 -2.0759 0.0025 0.700394 0.607419 2.16812 0.00713884 136 4 1 5.88275e-07 
-0.188435 -0.399973 -2.09068 0.0025 0.704678 0.612626 2.17341 0.00709544 137 4 1 5.78948e-07 
-0.184898 -0.393267 -2.09256 0.0025 0.708967 0.617852 2.1787 0.00705252 138 4 1 5.61589e-07 
-0.181383 -0.386604 -2.09515 0.0025 0.713251 0.623085 2.18395 0.00701016 139 4 1 5.50115e-07 
-0.177888 -0.379992 -2.09278 0.0025 0.717526 0.62832 2.18918 0.00696839 140 4 1 5.41026e-07 
-0.174414 -0.373417 -2.09387 0.0025 0.721792 0.633556 2.19437 0.0069272 141 4 1 5.50206e-07 
-0.170961 -0.366892 -2.10657 0.0025 0.72606 0.638807 2.19956 0.00688648 142 4 1 5.4208e-07 
-0.167528 -0.360374 -2.10535 0.0025 0.730328 0.64407 2.20472 0.00684623 143 4 1 5.32906e-07 
-0.164115 -0.353906 -2.11363 0.0025 0.734593 0.649341 2.20986 0.00680649 144 4 1 5.16018e-07 
-0.160721 -0.347476 -2.10265 0.0025 0.738847 0.654611 2.21497 0.0067673 145 4 1 5.04657e-07 
-0.157347 -0.341103 -2.10589 0.0025 0.743086 0.659875 2.22004 0.0067287 146 4 1 5.0921e-07 
-0.153992 -0.33477 -2.10734 0.0025 0.747319 0.665145 2.22509 0.00669058 147 4 1 5.20113e-07 
-0.150657 -0.328445 -2.1272 0.0025 0.75156 0.670434 2.23013 0.00665283 148 4 1 5.03127e-07 
-0.147339 -0.322138 -2.11656 0.0025 0.755798 0.675731 2.23515 0.00661553 149 4 1 4.58613e-07 
-0.144041 -0.315935 -2.09513 0.0025 0.760004 0.681003 2.24012 0.00657891 150 4 1 4.83819e-07 
-0.140761 -0.309775 -2.11824 0.0025 0.764204 0.686279 2.24506 0.00654275 151 4 1 5.11041e-07 
-0.137498 -0.303583 -2.13316 0.0025 0.768424 0.691589 2.25001 0.00650683 152 4 1 4.93256e-07 
-0.134254 -0.297424 -2.13819 0.0025 0.772651 0.69692 2.25496 0.00647123 153 4 1 4.60179e-07 
-0.131027 -0.291305 -2.12215 0.0025 0.776861 0.702241 2.25986 0.00643616 154 4 1 4.32191e-07 
-0.127817 -0.285285 -2.10555 0.0025 0.781039 0.707535 2.26472 0.00640173 155 4 1 4.62399e-07 
-0.124625 -0.279287 -2.12992 0.0025 0.785215 0.712838 2.26955 0.00636769 156 4 1 4.89704e-07 
-0.12145 -0.273268 -2.14824 0.0025 0.789413 0.718179 2.2744 0.00633382 157 4 1 4.59448e-07 
-0.118291 -0.267283 -2.14029 0.0025 0.793613 0.723533 2.27923 0.0063003 158 4 1 4.36902e-07 
-0.115149 -0.261371 -2.13672 0.0025 0.797798 0.728879 2.28403 0.00626725 159 4 1 4.25247e-07 
-0.112024 -0.255527 -2.12344 0.0025 0.801964 0.734214 2.28879 0.0062347 160 4 1 4.5162e-07 
-0.108915 -0.249742 -2.15188 0.0025 0.806137 0.739571 2.29355 0.00620242 161 4 1 4.9813e-07 
-0.105821 -0.243938 -2.1897 0.0025 0.810357 0.744995 2.29834 0.00617012 162 4 1 4.80885e-07 
-0.102744 -0.238202 -2.19422 0.0025 0.814607 0.750471 2.30316 0.00613793 163 4 1 4.76825e-07 
-0.0996835 -0.232569 -2.21959 0.0025 0.818881 0.755989 2.30798 0.00610589 164 4 1 4.72762e-07 
-0.0966385 -0.227052 -2.21829 0.0025 0.823177 0.761548 2.31282 0.00607403 165 4 1 5.0749e-07 
-0.0936094 -0.221718 -2.27235 0.0025 0.827521 0.767183 2.31769 0.00604215 166 4 1 5.89828e-07 
-0.0905963 -0.216452 -2.34984 0.0025 0.831973 0.772969 2.32267 0.00600981 167 4 1 6.20516e-07 
-0.0875996 -0.211386 -2.41456 0.0025 0.83655 0.778929 2.32777 0.00597693 168 4 1 6.62964e-07 
-0.0846193 -0.206518 -2.5067 0.0025 0.841263 0.78508 2.33301 0.00594345 169 4 1 6.7614e-07 
-0.0816561 -0.201886 -2.56059 0.0025 0.846107 0.791415 2.33837 0.00590942 170 4 1 6.98772e-07 
-0.0787099 -0.197611 -2.64569 0.0025 0.85108 0.797938 2.34386 0.00587489 171 4 1 7.8727e-07 
-0.0757811 -0.193533 -2.76907 0.0025 0.856231 0.804707 2.34952 0.00583955 172 4 1 8.10966e-07 
-0.0728703 -0.189676 -2.85086 0.0025 0.861554 0.811718 2.35536 0.00580347 173 4 1 8.19583e-07 
-0.0699776 -0.185959 -2.9482 0.0025 0.867022 0.818937 2.36133 0.00576687 174 4 1 7.50687e-07 
-0.0671033 -0.182317 -2.94048 0.0025 0.872562 0.826269 2.36735 0.00573025 175 4 1 6.65133e-07 
-0.0642473 -0.178911 -2.93462 0.0025 0.878097 0.833617 2.37335 0.00569413 176 4 1 6.8883e-07 
-0.0614092 -0.175587 -2.96316 0.0025 0.883645 0.841001 2.37933 0.00565838 177 4 1 7.21185e-07 
-0.0585888 -0.172309 -3.01795 0.0025 0.889239 0.848462 2.38534 0.00562279 178 4 1 7.18765e-07 
-0.0557863 -0.169065 -3.07587 0.0025 0.894862 0.855974 2.39137 0.00558745 179 4 1 4.55616e-07 
-0.0530013 -0.165502 -2.88311 0.0025 0.900285 0.863223 2.39717 0.0055538 180 4 1 -2.21819e-07 
-0.0502325 -0.161071 -2.23095 0.0025 0.904987 0.86953 2.40218 0.00552494 181 4 1 -6.80452e-07 
-0.0474764 -0.155471 -1.61 0.0025 0.908692 0.874542 2.4061 0.00550241 182 4 1 -1.76747e-07 
-0.04473 -0.149218 -1.77615 0.0025 0.911972 0.878988 2.40954 0.00548262 183 4 1 5.45978e-07 
-0.0419937 -0.14354 -2.19538 0.0025 0.915479 0.883689 2.41325 0.00546162 184 4 1 -1.57995e-07 
-0.0392684 -0.13762 -1.40712 0.0025 0.918511 0.887736 2.41649 0.00544359 185 4 1 -1.75028e-06 
-0.0365501 -0.128373 0.319883 0.0025 0.919673 0.889349 2.41772 0.00543671 186 3 1 -1.28738e-06 
-0.0338317 -0.116899 0.319764 0.0025 0.919608 0.889352 2.41758 0.0054371 187 5 1 1.15769e-06 
-0.031113 -0.108529 -1.4927 0.0025 0.920697 0.890804 2.41868 0.00543067 188 4 1 1.41053e-06 
-0.028401 -0.102734 -1.53123 0.0025 0.922922 0.893713 2.4211 0.00541757 189 4 1 -1.53089e-06 
-0.0256954 -0.0931249 0.791362 0.0025 0.923584 0.894636 2.42185 0.0054137 190 3 1 -1.69302e-06 
-0.0229873 -0.080608 0.799862 0.0025 0.922694 0.89354 2.42083 0.00541891 191 5 1 1.28055e-06 
-0.0202765 -0.0711184 -1.1546 0.0025 0.923046 0.893991 2.42116 0.00541685 192 4 1 1.3429e-06 
-0.0175705 -0.0637602 -0.999895 0.0025 0.924554 0.895948 2.42282 0.00540801 193 4 1 -1.22029e-06 
-0.0148685 -0.0539837 0.616141 0.0025 0.924907 0.896452 2.42321 0.00540595 194 3 1 -9.96205e-07 
-0.0121645 -0.0438798 0.395763 0.0025 0.924316 0.895712 2.42254 0.00540941 195 5 1 7.45778e-07 
-0.0094591 -0.0339484 -0.460228 0.0025 0.924388 0.895804 2.42262 0.00540898 196 4 1 6.14318e-07 
-0.00675552 -0.024166 -0.511243 0.0025 0.925056 0.896674 2.42336 0.00540508 197 4 1 -4.50261e-07 
-0.00405402 -0.0143874 0.203328 0.0025 0.925298 0.896997 2.42363 0.00540366 198 3 1 -6.39759e-07 
-0.00135186 -0.00486146 0.42245 0.0025 0.924919 0.896525 2.4232 0.00540588 199 4 1 4.12481e-07 
0.00135186 0.00486146 -0.42245 0.0025 0.924919 0.896525 2.4232 0.00540588 200 4 1 4.12481e-07 
0.00405402 0.0143874 -0.203328 0.0025 0.925298 0.896997 2.42363 0.00540366 201 3 1 -6.39759e-07 
0.00675552 0.024166 0.511243 0.0025 0.925056 0.896674 2.42336 0.00540508 202 4 1 -4.50261e-07 
0.0094591 0.0339484 0.460228 0.0025 0.924388 0.895804 2.42262 0.00540898 203 4 1 6.14318e-07 
0.0121645 0.0438798 -0.395763 0.0025 0.924316 0.895712 2.42254 0.00540941 204 5 1 7.45778e-07 
0.0148685 0.0539837 -0.616141 0.0025 0.924907 0.896452 2.42321 0.00540595 205 3 1 -9.96205e-07 
0.0175705 0.0637602 0.999895 0.0025 0.924554 0.895948 2.42282 0.00540801 206 4 1 -1.22029e-06 
0.0202765 0.0711184 1.1546 0.0025 0.923046 0.893991 2.42116 0.00541685 207 4 1 1.3429e-06 
0.0229873 0.080608 -0.799862 0.0025 0.922694 0.89354 2.42083 0.00541891 208 5 1 1.28055e-06 
0.0256954 0.0931249 -0.791362 0.0025 0.923584 0.894636 2.42185 0.0054137 209 3 1 -1.69302e-06 
0.028401 0.102734 1.53123 0.0025 0.922922 0.893713 2.4211 0.00541757 210 4 1 -1.53089e-06 
