# Time [s]: 0.447793
# Columns: pos [m], vel [m/s], acc [m/s^2], mass [kg], dens [kg/m^3], pres [Pa], ene [J/kg], sml [m], id, neighbor, alpha, gradh, ...additional?
1.20082 -0.673076 -1.27097e-05 0.0025 0.51106 0.432738 2.15252 0.00978358 0 4 1 -0.000134225 
1.2056 -0.673077 -1.33065e-05 0.0025 0.536918 0.426201 1.95006 0.0093124 1 4 1 0.000179254 
1.21014 -0.673077 -1.40447e-05 0.0025 0.548249 0.430871 1.96852 0.00911995 2 3 1 -1.90585e-05 
1.21472 -0.673078 -1.58107e-05 0.0025 0.545984 0.429207 1.96466 0.00915777 3 5 1 3.4856e-06 
1.2193 -0.673079 -1.98922e-05 0.0025 0.546383 0.429363 1.9646 0.00915109 4 4 1 -1.38666e-07 
1.22387 -0.673079 -2.799e-05 0.0025 0.546394 0.429334 1.96437 0.0091509 5 4 1 1.43765e-07 
1.22845 -0.67308 -4.22207e-05 0.0025 0.546417 0.429333 1.96431 0.00915051 6 4 1 -3.45657e-09 
1.23302 -0.673081 -6.51206e-05 0.0025 0.546431 0.429331 1.96425 0.00915028 7 4 1 8.31554e-09 
1.2376 -0.673082 -9.9464e-05 0.0025 0.546446 0.429331 1.96419 0.00915004 8 4 1 4.87718e-09 
1.24217 -0.673083 -0.000147742 0.0025 0.546459 0.429331 1.96415 0.00914982 9 4 1 5.62743e-09 
1.24675 -0.673085 -0.000211244 0.0025 0.546471 0.429331 1.96411 0.00914962 10 4 1 -2.04775e-09 
1.25132 -0.673086 -0.000288893 0.0025 0.546483 0.429331 1.96407 0.00914942 11 4 1 4.95676e-09 
1.2559 -0.673089 -0.000376218 0.0025 0.546494 0.429332 1.96403 0.00914923 12 4 1 3.10266e-09 
1.26047 -0.673091 -0.000464976 0.0025 0.546504 0.429333 1.964 0.00914906 13 4 1 3.82557e-09 
1.26505 -0.673095 -0.000543858 0.0025 0.546514 0.429334 1.96397 0.0091489 14 4 1 2.34762e-09 
1.26962 -0.673098 -0.000600349 0.0025 0.546522 0.429336 1.96394 0.00914875 15 4 1 -1.41035e-09 
1.2742 -0.673102 -0.000623346 0.0025 0.546531 0.429337 1.96392 0.00914861 16 4 1 4.99055e-09 
1.27877 -0.673106 -0.000605778 0.0025 0.546539 0.429338 1.9639 0.00914847 17 4 1 1.46939e-09 
1.28334 -0.67311 -0.000546373 0.0025 0.546547 0.42934 1.96388 0.00914835 18 4 1 -1.3093e-09 
1.28792 -0.673113 -0.000450001 0.0025 0.546554 0.429341 1.96386 0.00914823 19 4 1 2.49377e-09 
1.29249 -0.673117 -0.000326502 0.0025 0.54656 0.429342 1.96384 0.00914812 20 4 1 8.97977e-10 
1.29707 -0.67312 -0.000188435 0.0025 0.546566 0.429343 1.96382 0.00914803 21 4 1 8.8659e-10 
1.30164 -0.673122 -4.84857e-05 0.0025 0.546571 0.429343 1.96381 0.00914795 22 4 1 7.51416e-10 
1.30621 -0.673124 8.27266e-05 0.0025 0.546575 0.429344 1.96379 0.00914787 23 4 1 -4.5086e-10 
1.31079 -0.673125 0.000197946 0.0025 0.546579 0.429343 1.96378 0.00914781 24 4 1 1.24574e-09 
1.31536 -0.673126 0.000293575 0.0025 0.546582 0.429343 1.96376 0.00914776 25 4 1 5.62284e-10 
1.31994 -0.673127 0.00036919 0.0025 0.546585 0.429342 1.96375 0.00914771 26 4 1 -4.75752e-10 
1.32451 -0.673128 0.000426656 0.0025 0.546587 0.429341 1.96374 0.00914767 27 4 1 1.16283e-09 
1.32908 -0.673128 0.00046918 0.0025 0.546589 0.42934 1.96372 0.00914764 28 4 1 8.49853e-10 
1.33366 -0.673129 0.000500468 0.0025 0.546591 0.429339 1.96371 0.00914761 29 4 1 -7.52059e-10 
1.33823 -0.67313 0.00052403 0.0025 0.546593 0.429338 1.9637 0.00914758 30 4 1 5.37925e-10 
1.3428 -0.67313 0.000542671 0.0025 0.546594 0.429336 1.96369 0.00914756 31 4 1 2.00575e-09 
1.34738 -0.673131 0.000558238 0.0025 0.546595 0.429335 1.96368 0.00914754 32 4 1 -8.1857e-10 
1.35195 -0.673132 0.000571722 0.0025 0.546596 0.429333 1.96367 0.00914753 33 4 1 -7.91384e-10 
1.35653 -0.673133 0.000583633 0.0025 0.546597 0.429332 1.96366 0.00914751 34 4 1 2.15264e-09 
1.3611 -0.673135 0.000594418 0.0025 0.546597 0.42933 1.96365 0.0091475 35 4 1 -1.72147e-10 
1.36567 -0.673136 0.000604704 0.0025 0.546598 0.429329 1.96364 0.00914749 36 4 1 -8.37479e-10 
1.37025 -0.673138 0.000615411 0.0025 0.546598 0.429327 1.96363 0.00914748 37 4 1 1.47324e-09 
1.37482 -0.67314 0.000627957 0.0025 0.546599 0.429325 1.96362 0.00914748 38 4 1 1.44799e-10 
1.37939 -0.673142 0.00064465 0.0025 0.546599 0.429324 1.96362 0.00914748 39 4 1 -6.82816e-10 
1.38397 -0.673145 0.000668858 0.0025 0.546599 0.429322 1.96361 0.00914748 40 3 1 7.48789e-10 
1.38854 -0.673148 0.000704268 0.0025 0.546599 0.42932 1.9636 0.00914748 41 4 1 4.55869e-10 
1.39312 -0.673151 0.000753079 0.0025 0.546598 0.429318 1.96359 0.00914749 42 4 1 -6.38786e-10 
1.39769 -0.673154 0.000814176 0.0025 0.546598 0.429316 1.96358 0.00914749 43 4 1 -4.33802e-11 
1.40226 -0.673158 0.000883027 0.0025 0.546597 0.429314 1.96358 0.0091475 44 4 1 9.15671e-10 
1.40684 -0.673161 0.000954253 0.0025 0.546596 0.429312 1.96357 0.00914752 45 4 1 -4.25602e-10 
1.41141 -0.673165 0.00102563 0.0025 0.546595 0.429309 1.96356 0.00914754 46 4 1 -7.77885e-10 
1.41598 -0.673169 0.00110054 0.0025 0.546594 0.429307 1.96355 0.00914756 47 4 1 5.21756e-10 
1.42056 -0.673174 0.00118626 0.0025 0.546592 0.429304 1.96355 0.00914759 48 4 1 1.78068e-10 
1.42513 -0.673178 0.00128863 0.0025 0.54659 0.4293 1.96354 0.00914762 49 4 1 -7.47035e-10 
1.42971 -0.673184 0.00140665 0.0025 0.546588 0.429297 1.96353 0.00914766 50 4 1 -4.66113e-10 
1.43428 -0.673189 0.00153144 0.0025 0.546586 0.429293 1.96352 0.0091477 51 4 1 4.59679e-10 
1.43885 -0.673195 0.00165112 0.0025 0.546583 0.429289 1.96351 0.00914775 52 4 1 -2.5011e-10 
1.44343 -0.673201 0.00175898 0.0025 0.54658 0.429285 1.96351 0.0091478 53 4 1 -9.72816e-10 
1.448 -0.673208 0.00185924 0.0025 0.546576 0.42928 1.9635 0.00914785 54 4 1 -1.13792e-10 
1.45258 -0.673215 0.00196615 0.0025 0.546573 0.429275 1.96349 0.00914792 55 4 1 4.71004e-10 
1.45715 -0.673223 0.00209677 0.0025 0.546568 0.42927 1.96348 0.00914798 56 4 1 -6.18231e-10 
1.46172 -0.673233 0.00226236 0.0025 0.546564 0.429264 1.96347 0.00914806 57 4 1 -1.09624e-09 
1.4663 -0.673242 0.00246358 0.0025 0.546559 0.429258 1.96345 0.00914814 58 4 1 3.62329e-11 
1.47087 -0.673253 0.00269129 0.0025 0.546554 0.429251 1.96344 0.00914823 59 4 1 -3.12366e-10 
1.47545 -0.673264 0.00293153 0.0025 0.546548 0.429244 1.96343 0.00914833 60 4 1 -1.05949e-09 
1.48002 -0.673277 0.00317273 0.0025 0.546541 0.429236 1.96342 0.00914844 61 4 1 -8.88823e-10 
1.48459 -0.673291 0.0034143 0.0025 0.546534 0.429227 1.9634 0.00914856 62 4 1 -2.63461e-10 
1.48917 -0.673306 0.00367325 0.0025 0.546527 0.429218 1.96339 0.00914869 63 4 1 -6.82512e-10 
1.49374 -0.673323 0.00398194 0.0025 0.546518 0.429208 1.96337 0.00914883 64 4 1 -1.26046e-09 
1.49832 -0.673341 0.0043727 0.0025 0.546509 0.429197 1.96336 0.00914899 65 4 1 -1.08195e-09 
-0.497108 -0.673362 0.00485541 0.0025 0.546498 0.429185 1.96334 0.00914916 66 4 1 -1.22695e-09 
-0.492534 -0.673384 0.00540559 0.0025 0.546487 0.429171 1.96332 0.00914936 67 4 1 -1.64364e-09 
-0.487959 -0.673408 0.00597884 0.0025 0.546474 0.429156 1.9633 0.00914957 68 4 1 -1.79199e-09 
-0.483384 -0.673435 0.00654959 0.0025 0.546459 0.42914 1.96328 0.00914982 69 4 1 -1.55374e-09 
-0.478809 -0.673465 0.00714669 0.0025 0.546443 0.429122 1.96325 0.00915008 70 4 1 -1.87199e-09 
-0.474234 -0.673499 0.00785082 0.0025 0.546425 0.429102 1.96322 0.00915038 71 4 1 -2.38248e-09 
-0.469659 -0.673536 0.00874486 0.0025 0.546406 0.42908 1.96319 0.00915071 72 4 1 -2.61544e-09 
-0.465083 -0.673578 0.0098507 0.0025 0.546384 0.429055 1.96316 0.00915107 73 4 1 -3.14819e-09 
-0.460508 -0.673625 0.011107 0.0025 0.546359 0.429027 1.96312 0.00915149 74 4 1 -3.71373e-09 
-0.455932 -0.673676 0.0124164 0.0025 0.546332 0.428996 1.96308 0.00915195 75 4 1 -3.86104e-09 
-0.451356 -0.673733 0.013734 0.0025 0.546301 0.428962 1.96303 0.00915247 76 4 1 -3.86758e-09 
-0.446779 -0.673797 0.0151196 0.0025 0.546266 0.428923 1.96298 0.00915305 77 4 1 -4.06037e-09 
-0.442203 -0.673869 0.0166924 0.0025 0.546228 0.428881 1.96292 0.00915368 78 4 1 -4.53241e-09 
-0.437626 -0.673949 0.0185078 0.0025 0.546187 0.428835 1.96286 0.00915438 79 4 1 -4.96974e-09 
-0.433048 -0.674037 0.0204858 0.0025 0.54614 0.428784 1.96279 0.00915515 80 4 1 -5.12072e-09 
-0.42847 -0.674133 0.0224801 0.0025 0.54609 0.428728 1.96272 0.009156 81 4 1 -4.92652e-09 
-0.423892 -0.674236 0.0243617 0.0025 0.546035 0.428668 1.96264 0.00915692 82 4 1 -4.28585e-09 
-0.419314 -0.674346 0.0259831 0.0025 0.545977 0.428603 1.96255 0.0091579 83 4 1 -3.12305e-09 
-0.414734 -0.674462 0.0271708 0.0025 0.545916 0.428536 1.96246 0.00915892 84 4 1 -1.50373e-09 
-0.410155 -0.674582 0.0278001 0.0025 0.545853 0.428467 1.96237 0.00915997 85 4 1 4.87391e-10 
-0.405574 -0.674705 0.0277844 0.0025 0.545791 0.428398 1.96228 0.00916102 86 4 1 2.72586e-09 
-0.400994 -0.674826 0.0270333 0.0025 0.54573 0.428331 1.96219 0.00916204 87 4 1 5.31374e-09 
-0.396412 -0.67494 0.0253063 0.0025 0.545674 0.428269 1.96211 0.00916298 88 4 1 8.23598e-09 
-0.391831 -0.675041 0.0225013 0.0025 0.545625 0.428215 1.96204 0.00916381 89 4 1 1.12956e-08 
-0.387249 -0.675124 0.018786 0.0025 0.545584 0.42817 1.96198 0.00916449 90 4 1 1.43557e-08 
-0.382666 -0.67518 0.0130114 0.0025 0.545556 0.428139 1.96194 0.00916497 91 4 1 1.67926e-08 
-0.378084 -0.675213 0.00783262 0.0025 0.545542 0.428124 1.96191 0.0091652 92 5 1 2.96515e-08 
-0.373501 -0.675217 -0.00898085 0.0025 0.545552 0.428136 1.96193 0.00916503 93 4 1 4.87183e-08 
-0.368919 -0.675139 -0.0247957 0.0025 0.545603 0.428193 1.962 0.00916417 94 4 1 9.38494e-08 
-0.364337 -0.674941 -0.0666436 0.0025 0.545734 0.428342 1.96219 0.00916198 95 4 1 2.38676e-07 
-0.359757 -0.674378 -0.196812 0.0025 0.546058 0.428703 1.96265 0.00915654 96 4 1 3.77945e-07 
-0.35518 -0.673186 -0.339929 0.0025 0.546677 0.429384 1.96354 0.00914617 97 4 1 4.20984e-07 
-0.35061 -0.671412 -0.471818 0.0025 0.54761 0.430412 1.96488 0.00913059 98 4 1 4.92309e-07 
-0.34605 -0.669023 -0.632082 0.0025 0.548885 0.43182 1.96671 0.00910937 99 4 1 6.64031e-07 
-0.341501 -0.665799 -0.855382 0.0025 0.550591 0.433703 1.96915 0.00908116 100 4 1 8.47757e-07 
-0.336968 -0.661583 -1.09785 0.0025 0.552798 0.436139 1.9723 0.0090449 101 4 1 9.26067e-07 
-0.332456 -0.65643 -1.30363 0.0025 0.555484 0.439104 1.97613 0.00900115 102 4 1 8.73993e-07 
-0.327967 -0.650593 -1.43204 0.0025 0.558536 0.442479 1.98047 0.00895197 103 4 1 7.66304e-07 
-0.323504 -0.644384 -1.50219 0.0025 0.561817 0.446119 1.98512 0.00889969 104 4 1 7.11913e-07 
-0.319067 -0.637947 -1.5585 0.0025 0.56525 0.449939 1.98996 0.00884564 105 4 1 7.39114e-07 
-0.314658 -0.631308 -1.62777 0.0025 0.568823 0.453927 1.99498 0.00879008 106 4 1 8.02911e-07 
-0.310277 -0.624396 -1.70683 0.0025 0.572552 0.4581 2.0002 0.00873283 107 4 1 8.70492e-07 
-0.305925 -0.617203 -1.79518 0.0025 0.576453 0.462475 2.00564 0.00867373 108 4 1 9.13107e-07 
-0.301603 -0.609728 -1.87354 0.0025 0.58052 0.467048 2.01129 0.00861297 109 4 1 9.01431e-07 
-0.297312 -0.602059 -1.92501 0.0025 0.584716 0.471779 2.01709 0.00855116 110 4 1 8.62746e-07 
-0.293052 -0.594287 -1.95768 0.0025 0.588993 0.476615 2.02298 0.00848906 111 4 1 8.12797e-07 
-0.288823 -0.586504 -1.96824 0.0025 0.593308 0.481508 2.0289 0.00842733 112 4 1 7.5922e-07 
-0.284625 -0.578755 -1.96666 0.0025 0.597622 0.486415 2.03479 0.00836649 113 4 1 7.0092e-07 
-0.280457 -0.571126 -1.94637 0.0025 0.601903 0.4913 2.0406 0.00830698 114 4 1 6.5431e-07 
-0.276318 -0.563622 -1.92638 0.0025 0.606134 0.496141 2.04633 0.008249 115 4 1 6.35153e-07 
-0.272207 -0.55627 -1.91134 0.0025 0.610317 0.500942 2.05197 0.00819246 116 4 1 6.31598e-07 
-0.268125 -0.54902 -1.90649 0.0025 0.614464 0.505713 2.05753 0.00813717 117 4 1 6.05241e-07 
-0.26407 -0.541867 -1.88533 0.0025 0.61857 0.51045 2.06302 0.00808316 118 4 1 5.65779e-07 
-0.260042 -0.534845 -1.86218 0.0025 0.622623 0.515138 2.06842 0.00803054 119 4 1 5.67329e-07 
-0.25604 -0.527937 -1.85917 0.0025 0.626637 0.519794 2.07374 0.00797911 120 4 1 5.68733e-07 
-0.252063 -0.521091 -1.85167 0.0025 0.630624 0.52443 2.07901 0.00792865 121 4 1 5.34796e-07 
-0.248111 -0.514356 -1.82957 0.0025 0.634574 0.529034 2.0842 0.0078793 122 4 1 5.31026e-07 
-0.244183 -0.507712 -1.82965 0.0025 0.638492 0.533614 2.08934 0.00783095 123 4 1 5.44575e-07 
-0.24028 -0.501107 -1.83098 0.0025 0.642399 0.53819 2.09445 0.00778333 124 4 1 5.30055e-07 
-0.2364 -0.494561 -1.82417 0.0025 0.64629 0.542759 2.09951 0.00773646 125 4 1 5.18965e-07 
-0.232543 -0.488084 -1.82043 0.0025 0.650165 0.547322 2.10454 0.00769035 126 4 1 5.4067e-07 
-0.228709 -0.481627 -1.83759 0.0025 0.654045 0.5519 2.10955 0.00764473 127 4 1 5.58661e-07 
-0.224898 -0.475165 -1.8515 0.0025 0.657945 0.556514 2.11457 0.00759942 128 4 1 5.65076e-07 
-0.22111 -0.468685 -1.87146 0.0025 0.661871 0.561168 2.11961 0.00755434 129 4 1 5.65658e-07 
-0.217344 -0.462207 -1.88277 0.0025 0.665821 0.565862 2.12466 0.00750952 130 4 1 5.7268e-07 
-0.2136 -0.455705 -1.90511 0.0025 0.6698 0.570603 2.12973 0.00746491 131 4 1 6.00192e-07 
-0.209879 -0.449161 -1.9381 0.0025 0.673825 0.57541 2.13484 0.00742032 132 4 1 6.18782e-07 
-0.20618 -0.442556 -1.97162 0.0025 0.677905 0.580292 2.14 0.00737567 133 4 1 6.08162e-07 
-0.202503 -0.435899 -1.9886 0.0025 0.682025 0.585234 2.14519 0.00733111 134 4 1 5.7529e-07 
-0.198849 -0.429283 -1.98849 0.0025 0.68616 0.590207 2.15039 0.00728693 135 4 1 5.90804e-07 
-0.195216 -0.422648 -2.02122 0.0025 0.690318 0.595222 2.15559 0.00724303 136 4 1 6.06677e-07 
-0.191606 -0.415972 -2.03891 0.0025 0.694512 0.60029 2.16082 0.00719929 137 4 1 5.71144e-07 
-0.188017 -0.409329 -2.03626 0.0025 0.698715 0.605381 2.16604 0.00715599 138 4 1 5.62135e-07 
-0.18445 -0.402715 -2.04859 0.0025 0.70292 0.610488 2.17124 0.00711318 139 4 1 5.67583e-07 
-0.180904 -0.396126 -2.05786 0.0025 0.707135 0.615618 2.17644 0.00707079 140 4 1 5.48523e-07 
-0.177379 -0.389555 -2.05661 0.0025 0.711348 0.620759 2.18162 0.0070289 141 4 1 5.40045e-07 
-0.173875 -0.383038 -2.06284 0.0025 0.715557 0.625907 2.18677 0.00698756 142 4 1 5.23252e-07 
-0.170391 -0.376559 -2.0527 0.0025 0.719754 0.631053 2.19189 0.00694681 143 4 1 5.23891e-07 
-0.166928 -0.370126 -2.06556 0.0025 0.723945 0.636203 2.19699 0.0069066 144 4 1 5.26902e-07 
-0.163485 -0.363716 -2.06526 0.0025 0.728137 0.641366 2.20207 0.00686684 145 4 1 5.19529e-07 
-0.160061 -0.357332 -2.07479 0.0025 0.732328 0.64654 2.20713 0.00682754 146 4 1 5.09388e-07 
-0.156657 -0.350988 -2.07045 0.0025 0.736514 0.651719 2.21217 0.00678874 147 4 1 4.9556e-07 
-0.153272 -0.344692 -2.07172 0.0025 0.740689 0.656896 2.21717 0.00675047 148 4 1 4.86569e-07 
-0.149906 -0.338446 -2.06525 0.0025 0.744852 0.662071 2.22215 0.00671275 149 4 1 4.90391e-07 
-0.146559 -0.332242 -2.07652 0.0025 0.74901 0.667253 2.2271 0.00667548 150 4 1 5.10116e-07 
-0.143231 -0.326031 -2.09574 0.0025 0.753182 0.67246 2.23206 0.0066385 151 4 1 4.70714e-07 
-0.139921 -0.319858 -2.07119 0.0025 0.757341 0.677664 2.23698 0.00660204 152 4 1 4.42552e-07 
-0.136629 -0.313789 -2.06527 0.0025 0.761471 0.682844 2.24185 0.00656624 153 4 1 4.75845e-07 
-0.133355 -0.307728 -2.08425 0.0025 0.765603 0.688037 2.24671 0.0065308 154 4 1 4.90928e-07 
-0.130098 -0.301674 -2.09877 0.0025 0.769752 0.693263 2.25157 0.0064956 155 4 1 4.82477e-07 
-0.126859 -0.295629 -2.1087 0.0025 0.773913 0.698514 2.25643 0.00646067 156 4 1 4.47908e-07 
-0.123637 -0.289654 -2.08972 0.0025 0.778061 0.703761 2.26126 0.00642623 157 4 1 4.29458e-07 
-0.120433 -0.283779 -2.08446 0.0025 0.782187 0.708992 2.26605 0.00639233 158 4 1 4.78715e-07 
-0.117245 -0.277949 -2.12237 0.0025 0.786333 0.71426 2.27084 0.00635863 159 4 1 5.07552e-07 
-0.114074 -0.272132 -2.14712 0.0025 0.790524 0.719595 2.27568 0.00632492 160 4 1 4.9781e-07 
-0.11092 -0.266406 -2.16577 0.0025 0.794749 0.724984 2.28053 0.0062913 161 4 1 4.97959e-07 
-0.107783 -0.260783 -2.18338 0.0025 0.799005 0.730426 2.28541 0.00625779 162 4 1 5.05114e-07 
-0.104662 -0.255336 -2.20301 0.0025 0.803298 0.735928 2.29031 0.00622434 163 4 1 5.79476e-07 
-0.101558 -0.250046 -2.28613 0.0025 0.80768 0.741558 2.2953 0.00619057 164 4 1 6.5479e-07 
-0.0984714 -0.24487 -2.36715 0.0025 0.812203 0.747378 2.30043 0.0061561 165 4 1 6.78492e-07 
-0.095402 -0.239941 -2.44263 0.0025 0.816866 0.753392 2.30571 0.00612096 166 4 1 7.17398e-07 
-0.0923504 -0.235221 -2.53284 0.0025 0.821676 0.75961 2.31113 0.00608512 167 4 1 7.33305e-07 
-0.0893169 -0.230843 -2.59674 0.0025 0.826628 0.766027 2.31669 0.00604867 168 4 1 7.84337e-07 
-0.0863017 -0.226767 -2.70826 0.0025 0.831735 0.772662 2.3224 0.00601153 169 4 1 8.3686e-07 
-0.0833053 -0.222871 -2.80253 0.0025 0.837013 0.779533 2.32829 0.00597362 170 4 1 8.03025e-07 
-0.080328 -0.219178 -2.84814 0.0025 0.842411 0.786579 2.33428 0.00593535 171 4 1 7.88188e-07 
-0.0773699 -0.215551 -2.90597 0.0025 0.847894 0.793755 2.34035 0.00589696 172 4 1 7.40748e-07 
-0.0744309 -0.212034 -2.8973 0.0025 0.853418 0.801003 2.34644 0.00585879 173 4 1 7.22629e-07 
-0.071511 -0.208709 -2.93431 0.0025 0.858965 0.808302 2.35252 0.00582096 174 4 1 7.89957e-07 
-0.0686099 -0.205469 -3.02802 0.0025 0.864582 0.815707 2.35866 0.00578314 175 4 1 6.85728e-07 
-0.0657278 -0.202333 -2.99153 0.0025 0.87017 0.823082 2.36476 0.005746 176 4 1 2.35181e-07 
-0.0628639 -0.198614 -2.63364 0.0025 0.875365 0.829952 2.37041 0.00571191 177 4 1 -4.06384e-07 
-0.0600158 -0.193552 -1.96702 0.0025 0.87972 0.835742 2.37512 0.00568363 178 4 1 -4.894e-07 
-0.0571802 -0.187432 -1.67746 0.0025 0.883305 0.840542 2.37897 0.00566056 179 4 1 2.54642e-07 
-0.0543553 -0.181589 -2.09156 0.0025 0.886834 0.845243 2.38275 0.00563803 180 4 1 3.80306e-07 
-0.0515421 -0.176314 -1.98996 0.0025 0.89036 0.849895 2.38656 0.00561571 181 4 1 -1.1428e-06 
-0.0487395 -0.16907 -0.443812 0.0025 0.892547 0.85281 2.38895 0.00560194 182 4 1 -1.85673e-06 
-0.0459402 -0.158253 0.555978 0.0025 0.892895 0.853364 2.38928 0.00559976 183 4 1 1.36076e-07 
-0.0431398 -0.14774 -0.812881 0.0025 0.893442 0.854137 2.38979 0.00559633 184 4 1 1.83375e-06 
-0.0403439 -0.141135 -1.94949 0.0025 0.895591 0.856917 2.39212 0.0055829 185 4 1 -3.15939e-07 
-0.0375569 -0.134021 -0.22718 0.0025 0.897258 0.8591 2.39399 0.00557253 186 3 1 -2.27113e-06 
-0.0347713 -0.122218 1.25089 0.0025 0.896752 0.858528 2.39341 0.00557568 187 4 1 -3.74685e-08 
-0.0319812 -0.110674 -0.359042 0.0025 0.896314 0.85799 2.39286 0.00557841 188 5 1 2.02538e-06 
-0.0291929 -0.102985 -1.52465 0.0025 0.897696 0.859753 2.39437 0.00556982 189 4 1 -6.52799e-08 
-0.0264113 -0.0944451 -0.153155 0.0025 0.898945 0.861393 2.39577 0.00556207 190 3 1 -1.59667e-06 
-0.0236309 -0.0835066 0.678369 0.0025 0.898722 0.861158 2.3955 0.00556346 191 4 1 -2.85898e-09 
-0.0208479 -0.0734725 -0.207792 0.0025 0.898472 0.860837 2.39519 0.00556501 192 5 1 7.56188e-07 
-0.0180658 -0.0642304 -0.368852 0.0025 0.898886 0.861369 2.39566 0.00556244 193 4 1 4.95419e-09 
-0.0152854 -0.0543351 -0.213304 0.0025 0.899327 0.86195 2.39615 0.00555971 194 4 1 -4.18202e-07 
-0.0125061 -0.0444109 0.231202 0.0025 0.899385 0.862045 2.39621 0.00555936 195 4 1 1.08543e-08 
-0.00972609 -0.0342441 -0.237152 0.0025 0.89944 0.862134 2.39627 0.00555902 196 4 1 3.29016e-07 
-0.00694712 -0.0245695 -0.273256 0.0025 0.899792 0.862578 2.39666 0.00555684 197 3 1 -3.44718e-07 
-0.00416925 -0.0154238 0.265346 0.0025 0.89979 0.862574 2.39667 0.00555685 198 4 1 -4.49382e-07 
-0.00139026 -0.00527928 0.375468 0.0025 0.899359 0.862038 2.3962 0.00555951 199 4 1 4.38042e-07 
0.00139026 0.00527928 -0.375468 0.0025 0.899359 0.862038 2.3962 0.00555951 200 4 1 4.38042e-07 
0.00416925 0.0154238 -0.265346 0.0025 0.89979 0.862574 2.39667 0.00555685 201 4 1 -4.49382e-07 
0.00694712 0.0245695 0.273256 0.0025 0.899792 0.862578 2.39666 0.00555684 202 3 1 -3.44718e-07 
0.00972609 0.0342441 0.237152 0.0025 0.89944 0.862134 2.39627 0.00555902 203 4 1 3.29016e-07 
0.0125061 0.0444109 -0.231202 0.0025 0.899385 0.862045 2.39621 0.00555936 204 4 1 1.08543e-08 
0.0152854 0.0543351 0.213304 0.0025 0.899327 0.86195 2.39615 0.00555971 205 4 1 -4.18202e-07 
0.0180658 0.0642304 0.368852 0.0025 0.898886 0.861369 2.39566 0.00556244 206 4 1 4.95419e-09 
0.0208479 0.0734725 0.207792 0.0025 0.898472 0.860837 2.39519 0.00556501 207 5 1 7.56188e-07 
0.0236309 0.0835066 -0.678369 0.0025 0.898722 0.861158 2.3955 0.00556346 208 4 1 -2.85898e-09 
0.0264113 0.0944451 0.153155 0.0025 0.898945 0.861393 2.39577 0.00556207 209 3 1 -1.59667e-06 
0.0291929 0.102985 1.52465 0.0025 0.897696 0.859753 2.39437 0.00556982 210 4 1 -6.52799e-08 
