# Time [s]: 0.447075
# Columns: pos [m], vel [m/s], acc [m/s^2], mass [kg], dens [kg/m^3], pres [Pa], ene [J/kg], sml [m], id, neighbor, alpha, gradh, ...additional?
1.2013 -0.673076 -1.1479e-05 0.0025 0.51106 0.432738 2.15252 0.00978358 0 4 1 -0.000134225 
1.20608 -0.673077 -1.20044e-05 0.0025 0.536918 0.426201 1.95006 0.00931241 1 4 1 0.000179254 
1.21062 -0.673077 -1.25648e-05 0.0025 0.548249 0.430871 1.96852 0.00911995 2 3 1 -1.90585e-05 
1.2152 -0.673078 -1.39655e-05 0.0025 0.545984 0.429207 1.96466 0.00915777 3 5 1 3.4856e-06 
1.21978 -0.673079 -1.74245e-05 0.0025 0.546383 0.429363 1.9646 0.00915109 4 4 1 -1.38668e-07 
1.22436 -0.673079 -2.45715e-05 0.0025 0.546394 0.429334 1.96437 0.00915091 5 4 1 1.43762e-07 
1.22893 -0.67308 -3.74486e-05 0.0025 0.546417 0.429333 1.96431 0.00915051 6 4 1 -3.46033e-09 
1.23351 -0.673081 -5.85313e-05 0.0025 0.546431 0.429331 1.96425 0.00915028 7 4 1 8.31056e-09 
1.23808 -0.673082 -9.05956e-05 0.0025 0.546446 0.42933 1.96419 0.00915004 8 4 1 4.87105e-09 
1.24266 -0.673083 -0.000136264 0.0025 0.546459 0.42933 1.96415 0.00914982 9 4 1 5.62056e-09 
1.24723 -0.673084 -0.000197148 0.0025 0.546471 0.429331 1.96411 0.00914962 10 4 1 -2.05447e-09 
1.25181 -0.673086 -0.000272689 0.0025 0.546483 0.429331 1.96407 0.00914942 11 4 1 4.95154e-09 
1.25638 -0.673088 -0.000359052 0.0025 0.546494 0.429332 1.96403 0.00914923 12 4 1 3.10054e-09 
1.26095 -0.673091 -0.000448584 0.0025 0.546504 0.429333 1.964 0.00914906 13 4 1 3.82799e-09 
1.26553 -0.673094 -0.000530321 0.0025 0.546513 0.429334 1.96397 0.00914891 14 4 1 2.35535e-09 
1.2701 -0.673098 -0.000591675 0.0025 0.546522 0.429335 1.96394 0.00914876 15 4 1 -1.39756e-09 
1.27468 -0.673101 -0.000621004 0.0025 0.546531 0.429337 1.96392 0.00914861 16 4 1 5.00699e-09 
1.27925 -0.673105 -0.000610328 0.0025 0.546539 0.429338 1.96389 0.00914848 17 4 1 1.48718e-09 
1.28383 -0.673109 -0.00055732 0.0025 0.546546 0.42934 1.96388 0.00914836 18 4 1 -1.29278e-09 
1.2884 -0.673113 -0.000465908 0.0025 0.546554 0.429341 1.96386 0.00914824 19 4 1 2.50664e-09 
1.29297 -0.673117 -0.00034533 0.0025 0.54656 0.429342 1.96384 0.00914813 20 4 1 9.05676e-10 
1.29755 -0.673119 -0.00020798 0.0025 0.546566 0.429343 1.96382 0.00914803 21 4 1 8.88673e-10 
1.30212 -0.673122 -6.67916e-05 0.0025 0.546571 0.429343 1.96381 0.00914795 22 4 1 7.48453e-10 
1.3067 -0.673124 6.70942e-05 0.0025 0.546575 0.429343 1.96379 0.00914788 23 4 1 -4.57599e-10 
1.31127 -0.673125 0.000185798 0.0025 0.546579 0.429343 1.96378 0.00914781 24 4 1 1.23678e-09 
1.31584 -0.673127 0.000285149 0.0025 0.546582 0.429343 1.96376 0.00914776 25 4 1 5.52565e-10 
1.32042 -0.673127 0.00036429 0.0025 0.546585 0.429342 1.96375 0.00914771 26 4 1 -4.85085e-10 
1.32499 -0.673128 0.000424814 0.0025 0.546587 0.429341 1.96373 0.00914767 27 4 1 1.15462e-09 
1.32957 -0.673129 0.000469807 0.0025 0.546589 0.42934 1.96372 0.00914764 28 4 1 8.4313e-10 
1.33414 -0.673129 0.000502973 0.0025 0.546591 0.429339 1.96371 0.00914761 29 4 1 -7.57274e-10 
1.33871 -0.67313 0.000527921 0.0025 0.546593 0.429337 1.9637 0.00914758 30 4 1 5.33989e-10 
1.34329 -0.673131 0.00054761 0.0025 0.546594 0.429336 1.96369 0.00914756 31 4 1 2.00271e-09 
1.34786 -0.673132 0.00056405 0.0025 0.546595 0.429335 1.96368 0.00914754 32 4 1 -8.21099e-10 
1.35243 -0.673133 0.000578343 0.0025 0.546596 0.429333 1.96367 0.00914753 33 4 1 -7.93682e-10 
1.35701 -0.673134 0.000591033 0.0025 0.546597 0.429332 1.96366 0.00914751 34 4 1 2.15046e-09 
1.36158 -0.673135 0.000602552 0.0025 0.546597 0.42933 1.96365 0.0091475 35 4 1 -1.74189e-10 
1.36616 -0.673137 0.000613495 0.0025 0.546598 0.429329 1.96364 0.00914749 36 4 1 -8.39304e-10 
1.37073 -0.673138 0.00062473 0.0025 0.546598 0.429327 1.96363 0.00914749 37 4 1 1.47179e-09 
1.3753 -0.673141 0.000637564 0.0025 0.546598 0.429325 1.96362 0.00914748 38 4 1 1.44037e-10 
1.37988 -0.673143 0.000654131 0.0025 0.546598 0.429324 1.96362 0.00914748 39 4 1 -6.825e-10 
1.38445 -0.673145 0.000677671 0.0025 0.546599 0.429322 1.96361 0.00914748 40 3 1 7.50373e-10 
1.38902 -0.673148 0.000711995 0.0025 0.546598 0.42932 1.9636 0.00914748 41 4 1 4.58287e-10 
1.3936 -0.673151 0.000759789 0.0025 0.546598 0.429318 1.96359 0.00914749 42 4 1 -6.36733e-10 
1.39817 -0.673155 0.000820601 0.0025 0.546598 0.429316 1.96358 0.0091475 43 4 1 -4.31428e-11 
1.40275 -0.673158 0.000890281 0.0025 0.546597 0.429314 1.96358 0.00914751 44 4 1 9.13388e-10 
1.40732 -0.673162 0.000963159 0.0025 0.546596 0.429311 1.96357 0.00914753 45 4 1 -4.29607e-10 
1.41189 -0.673166 0.00103611 0.0025 0.546595 0.429309 1.96356 0.00914755 46 4 1 -7.81597e-10 
1.41647 -0.67317 0.0011116 0.0025 0.546593 0.429306 1.96355 0.00914757 47 4 1 5.20163e-10 
1.42104 -0.673175 0.00119678 0.0025 0.546592 0.429303 1.96355 0.0091476 48 4 1 1.78633e-10 
1.42562 -0.673179 0.00129843 0.0025 0.54659 0.4293 1.96354 0.00914763 49 4 1 -7.4656e-10 
1.43019 -0.673185 0.00141706 0.0025 0.546588 0.429296 1.96353 0.00914767 50 4 1 -4.69002e-10 
1.43476 -0.67319 0.00154477 0.0025 0.546585 0.429293 1.96352 0.00914771 51 4 1 4.51441e-10 
1.43934 -0.673196 0.00166935 0.0025 0.546582 0.429288 1.96351 0.00914775 52 4 1 -2.62681e-10 
1.44391 -0.673202 0.00178247 0.0025 0.546579 0.429284 1.9635 0.00914781 53 4 1 -9.85967e-10 
1.44848 -0.673209 0.00188639 0.0025 0.546576 0.429279 1.96349 0.00914787 54 4 1 -1.23285e-10 
1.45306 -0.673217 0.00199437 0.0025 0.546572 0.429274 1.96348 0.00914793 55 4 1 4.67187e-10 
1.45763 -0.673225 0.00212408 0.0025 0.546568 0.429269 1.96347 0.009148 56 4 1 -6.17853e-10 
1.46221 -0.673234 0.00228856 0.0025 0.546563 0.429263 1.96346 0.00914807 57 4 1 -1.09577e-09 
1.46678 -0.673244 0.0024904 0.0025 0.546558 0.429257 1.96345 0.00914815 58 4 1 3.22487e-11 
1.47135 -0.673255 0.00272179 0.0025 0.546553 0.42925 1.96344 0.00914824 59 4 1 -3.23866e-10 
1.47593 -0.673267 0.00296894 0.0025 0.546547 0.429243 1.96343 0.00914834 60 4 1 -1.07877e-09 
1.4805 -0.673279 0.00321911 0.0025 0.54654 0.429235 1.96342 0.00914846 61 4 1 -9.12686e-10 
1.48508 -0.673293 0.00346913 0.0025 0.546533 0.429226 1.9634 0.00914858 62 4 1 -2.85708e-10 
1.48965 -0.673309 0.00373304 0.0025 0.546525 0.429216 1.96339 0.00914871 63 4 1 -6.96887e-10 
1.49423 -0.673326 0.0040421 0.0025 0.546516 0.429206 1.96337 0.00914886 64 4 1 -1.26568e-09 
1.4988 -0.673344 0.00443137 0.0025 0.546507 0.429195 1.96336 0.00914902 65 4 1 -1.08537e-09 
-0.496625 -0.673365 0.00491683 0.0025 0.546496 0.429183 1.96334 0.00914919 66 4 1 -1.24232e-09 
-0.492051 -0.673388 0.00547955 0.0025 0.546485 0.429169 1.96332 0.00914939 67 4 1 -1.68199e-09 
-0.487476 -0.673412 0.00607507 0.0025 0.546471 0.429154 1.9633 0.00914961 68 4 1 -1.85117e-09 
-0.482901 -0.67344 0.00667028 0.0025 0.546457 0.429137 1.96327 0.00914986 69 4 1 -1.61627e-09 
-0.478326 -0.67347 0.00728371 0.0025 0.54644 0.429119 1.96325 0.00915013 70 4 1 -1.91651e-09 
-0.473751 -0.673504 0.00799177 0.0025 0.546422 0.429098 1.96322 0.00915043 71 4 1 -2.40225e-09 
-0.469176 -0.673543 0.00888459 0.0025 0.546402 0.429076 1.96319 0.00915076 72 4 1 -2.62801e-09 
-0.4646 -0.673585 0.00999898 0.0025 0.54638 0.429051 1.96315 0.00915114 73 4 1 -3.18495e-09 
-0.460024 -0.673633 0.0112844 0.0025 0.546355 0.429023 1.96311 0.00915156 74 4 1 -3.79408e-09 
-0.455449 -0.673685 0.0126392 0.0025 0.546327 0.428991 1.96307 0.00915203 75 4 1 -3.97121e-09 
-0.450872 -0.673743 0.0139996 0.0025 0.546295 0.428956 1.96302 0.00915256 76 4 1 -3.96514e-09 
-0.446296 -0.673808 0.0154067 0.0025 0.54626 0.428917 1.96297 0.00915314 77 4 1 -4.1069e-09 
-0.441719 -0.673881 0.0169789 0.0025 0.546222 0.428874 1.96291 0.00915379 78 4 1 -4.52752e-09 
-0.437142 -0.673963 0.0187898 0.0025 0.546179 0.428827 1.96285 0.0091545 79 4 1 -4.94556e-09 
-0.432565 -0.674052 0.0207723 0.0025 0.546133 0.428775 1.96278 0.00915529 80 4 1 -5.09596e-09 
-0.427987 -0.674149 0.0227712 0.0025 0.546082 0.428719 1.96271 0.00915614 81 4 1 -4.88503e-09 
-0.423409 -0.674253 0.0246465 0.0025 0.546026 0.428658 1.96262 0.00915707 82 4 1 -4.20709e-09 
-0.41883 -0.674364 0.0262492 0.0025 0.545967 0.428593 1.96254 0.00915806 83 4 1 -2.99115e-09 
-0.414251 -0.674481 0.027392 0.0025 0.545906 0.428525 1.96245 0.00915909 84 4 1 -1.28631e-09 
-0.409671 -0.674602 0.027932 0.0025 0.545843 0.428455 1.96236 0.00916015 85 4 1 8.23857e-10 
-0.40509 -0.674725 0.0277747 0.0025 0.54578 0.428386 1.96226 0.0091612 86 4 1 3.18999e-09 
-0.40051 -0.674845 0.0268449 0.0025 0.54572 0.42832 1.96218 0.0091622 87 4 1 5.85096e-09 
-0.395928 -0.674958 0.0249294 0.0025 0.545665 0.428259 1.9621 0.00916313 88 4 1 8.82803e-09 
-0.391346 -0.675057 0.0218582 0.0025 0.545617 0.428206 1.96203 0.00916394 89 4 1 1.2049e-08 
-0.386764 -0.675137 0.0178688 0.0025 0.545579 0.428164 1.96197 0.00916458 90 4 1 1.45347e-08 
-0.382182 -0.675189 0.0121697 0.0025 0.545552 0.428135 1.96193 0.00916503 91 4 1 1.71008e-08 
-0.377599 -0.675219 0.00697808 0.0025 0.54554 0.428122 1.96191 0.00916522 92 5 1 3.2628e-08 
-0.373017 -0.675209 -0.0121592 0.0025 0.545556 0.42814 1.96193 0.00916497 93 4 1 5.3375e-08 
-0.368434 -0.67512 -0.0281585 0.0025 0.545616 0.428208 1.96202 0.00916396 94 4 1 1.10611e-07 
-0.363853 -0.674888 -0.0818705 0.0025 0.545769 0.428382 1.96224 0.00916139 95 4 1 2.66974e-07 
-0.359273 -0.674227 -0.222567 0.0025 0.546137 0.42879 1.96277 0.00915521 96 4 1 3.90663e-07 
-0.354697 -0.672935 -0.361348 0.0025 0.546809 0.429529 1.96373 0.00914397 97 4 1 4.25577e-07 
-0.350129 -0.671065 -0.494442 0.0025 0.547794 0.430615 1.96514 0.00912752 98 4 1 5.16637e-07 
-0.34557 -0.668557 -0.666074 0.0025 0.549134 0.432095 1.96707 0.00910524 99 4 1 6.9958e-07 
-0.341024 -0.66517 -0.896994 0.0025 0.550922 0.434069 1.96962 0.0090757 100 4 1 8.7176e-07 
-0.336494 -0.660782 -1.13769 0.0025 0.553216 0.4366 1.9729 0.00903806 101 4 1 9.27802e-07 
-0.331986 -0.655484 -1.3326 0.0025 0.555977 0.439648 1.97684 0.00899318 102 4 1 8.57616e-07 
-0.327501 -0.64956 -1.44789 0.0025 0.559079 0.443081 1.98124 0.00894328 103 4 1 7.52928e-07 
-0.323042 -0.643302 -1.51357 0.0025 0.562393 0.446759 1.98593 0.00889058 104 4 1 7.12628e-07 
-0.31861 -0.636824 -1.57012 0.0025 0.565852 0.450611 1.99081 0.00883623 105 4 1 7.52176e-07 
-0.314206 -0.630135 -1.64402 0.0025 0.569455 0.454634 1.99587 0.00878032 106 4 1 8.18698e-07 
-0.30983 -0.623165 -1.72401 0.0025 0.573219 0.458847 2.00113 0.00872266 107 4 1 8.82801e-07 
-0.305483 -0.615909 -1.81321 0.0025 0.577156 0.463265 2.00662 0.00866317 108 4 1 9.1808e-07 
-0.301167 -0.608379 -1.88751 0.0025 0.581256 0.467876 2.01231 0.00860207 109 4 1 8.98608e-07 
-0.296881 -0.600674 -1.93523 0.0025 0.585476 0.472637 2.01814 0.00854006 110 4 1 8.5645e-07 
-0.292626 -0.59288 -1.96366 0.0025 0.589769 0.477494 2.02405 0.00847789 111 4 1 8.07084e-07 
-0.288403 -0.585091 -1.97296 0.0025 0.594094 0.482401 2.02997 0.00841618 112 4 1 7.5037e-07 
-0.28421 -0.577344 -1.96624 0.0025 0.59841 0.487314 2.03586 0.00835547 113 4 1 6.93315e-07 
-0.280047 -0.56973 -1.94641 0.0025 0.60269 0.492199 2.04167 0.00829614 114 4 1 6.49801e-07 
-0.275914 -0.562241 -1.92457 0.0025 0.606918 0.497039 2.04739 0.00823835 115 4 1 6.34455e-07 
-0.271809 -0.554898 -1.91276 0.0025 0.611098 0.50184 2.05302 0.00818199 116 4 1 6.32788e-07 
-0.267732 -0.547652 -1.90749 0.0025 0.615245 0.506613 2.05858 0.00812685 117 4 1 6.00262e-07 
-0.263682 -0.540515 -1.8837 0.0025 0.619349 0.511349 2.06406 0.008073 118 4 1 5.63056e-07 
-0.259659 -0.533509 -1.86217 0.0025 0.623398 0.516037 2.06945 0.00802056 119 4 1 5.70819e-07 
-0.255661 -0.526602 -1.86212 0.0025 0.627412 0.520695 2.07476 0.00796924 120 4 1 5.65989e-07 
-0.251689 -0.519763 -1.85027 0.0025 0.6314 0.525333 2.08003 0.00791891 121 4 1 5.31591e-07 
-0.247742 -0.513043 -1.83017 0.0025 0.635347 0.529937 2.08522 0.00786971 122 4 1 5.36094e-07 
-0.24382 -0.506398 -1.83367 0.0025 0.639268 0.534522 2.09036 0.00782144 123 4 1 5.45487e-07 
-0.239921 -0.499793 -1.83263 0.0025 0.643178 0.539104 2.09546 0.0077739 124 4 1 5.26931e-07 
-0.236046 -0.493252 -1.82495 0.0025 0.647071 0.543678 2.10053 0.00772713 125 4 1 5.2291e-07 
-0.232194 -0.486776 -1.8253 0.0025 0.650951 0.548248 2.10555 0.00768107 126 4 1 5.46948e-07 
-0.228364 -0.480306 -1.84334 0.0025 0.654839 0.552839 2.11058 0.00763546 127 4 1 5.631e-07 
-0.224558 -0.473835 -1.85857 0.0025 0.658751 0.557468 2.11561 0.00759012 128 4 1 5.66133e-07 
-0.220774 -0.467341 -1.87611 0.0025 0.662687 0.562137 2.12066 0.00754504 129 4 1 5.68289e-07 
-0.217013 -0.460853 -1.89004 0.0025 0.666649 0.566847 2.12572 0.0075002 130 4 1 5.79681e-07 
-0.213274 -0.454335 -1.91393 0.0025 0.670642 0.571608 2.1308 0.00745554 131 4 1 6.06465e-07 
-0.209557 -0.447767 -1.94845 0.0025 0.674685 0.576437 2.13593 0.00741087 132 4 1 6.22775e-07 
-0.205863 -0.441138 -1.98121 0.0025 0.678781 0.581342 2.14111 0.00736614 133 4 1 6.01312e-07 
-0.202191 -0.434472 -1.99008 0.0025 0.682912 0.5863 2.14631 0.00732158 134 4 1 5.76537e-07 
-0.198541 -0.427853 -1.99741 0.0025 0.687057 0.591288 2.15151 0.00727742 135 4 1 6.00562e-07 
-0.194914 -0.421195 -2.03103 0.0025 0.691231 0.596324 2.15673 0.00723347 136 4 1 6.02172e-07 
-0.191308 -0.414509 -2.04176 0.0025 0.695436 0.601407 2.16197 0.00718974 137 4 1 5.67677e-07 
-0.187724 -0.407867 -2.04114 0.0025 0.699645 0.606509 2.16719 0.00714648 138 4 1 5.64317e-07 
-0.184161 -0.401244 -2.05344 0.0025 0.703858 0.611629 2.1724 0.0071037 139 4 1 5.68497e-07 
-0.18062 -0.394648 -2.06327 0.0025 0.708081 0.616771 2.1776 0.00706134 140 4 1 5.46859e-07 
-0.1771 -0.388079 -2.05923 0.0025 0.7123 0.621922 2.18279 0.00701951 141 4 1 5.38084e-07 
-0.1736 -0.381557 -2.06612 0.0025 0.716513 0.627078 2.18794 0.00697824 142 4 1 5.24382e-07 
-0.170122 -0.375085 -2.05637 0.0025 0.720715 0.632233 2.19306 0.00693755 143 4 1 5.25713e-07 
-0.166663 -0.368643 -2.07039 0.0025 0.724912 0.637393 2.19816 0.00689738 144 4 1 5.28967e-07 
-0.163224 -0.362233 -2.07057 0.0025 0.729112 0.642568 2.20325 0.00685766 145 4 1 5.18217e-07 
-0.159805 -0.355843 -2.07782 0.0025 0.733309 0.647752 2.20831 0.00681841 146 4 1 5.07317e-07 
-0.156406 -0.349502 -2.07348 0.0025 0.737499 0.652939 2.21335 0.00677967 147 4 1 4.94506e-07 
-0.153025 -0.343205 -2.07374 0.0025 0.741677 0.658124 2.21836 0.00674148 148 4 1 4.87067e-07 
-0.149664 -0.336963 -2.06885 0.0025 0.745844 0.663307 2.22333 0.00670381 149 4 1 4.97605e-07 
-0.146322 -0.330749 -2.08568 0.0025 0.750012 0.668502 2.22829 0.00666656 150 4 1 5.08713e-07 
-0.142998 -0.324527 -2.09766 0.0025 0.754191 0.673721 2.23325 0.00662962 151 4 1 4.59041e-07 
-0.139692 -0.318373 -2.06759 0.0025 0.758349 0.678927 2.23817 0.00659327 152 4 1 4.48195e-07 
-0.136404 -0.312304 -2.07327 0.0025 0.762482 0.684114 2.24304 0.00655753 153 4 1 4.84657e-07 
-0.133134 -0.30623 -2.09067 0.0025 0.766624 0.689322 2.2479 0.0065221 154 4 1 4.91056e-07 
-0.129882 -0.300166 -2.10566 0.0025 0.770783 0.694563 2.25277 0.00648691 155 4 1 4.75505e-07 
-0.126647 -0.294117 -2.10741 0.0025 0.774947 0.699821 2.25763 0.00645205 156 4 1 4.37671e-07 
-0.12343 -0.288156 -2.08641 0.0025 0.779091 0.705065 2.26246 0.00641774 157 4 1 4.34107e-07 
-0.12023 -0.282282 -2.08958 0.0025 0.783217 0.7103 2.26724 0.00638393 158 4 1 4.86416e-07 
-0.117046 -0.276424 -2.12896 0.0025 0.78737 0.715579 2.27204 0.00635026 159 4 1 4.99896e-07 
-0.113879 -0.270593 -2.14483 0.0025 0.791561 0.720917 2.27687 0.00631663 160 4 1 4.87981e-07 
-0.110729 -0.264854 -2.16331 0.0025 0.79578 0.726301 2.28172 0.00628315 161 4 1 4.85319e-07 
-0.107596 -0.259221 -2.17183 0.0025 0.800021 0.731727 2.28657 0.00624984 162 4 1 4.97619e-07 
-0.104479 -0.253757 -2.19738 0.0025 0.804296 0.737209 2.29145 0.00621661 163 4 1 5.82332e-07 
-0.101379 -0.248407 -2.28409 0.0025 0.808667 0.742825 2.29642 0.00618302 164 4 1 6.35299e-07 
-0.0982963 -0.243179 -2.34762 0.0025 0.813166 0.748618 2.30152 0.00614881 165 4 1 6.62794e-07 
-0.0952305 -0.238193 -2.43128 0.0025 0.817796 0.754593 2.30676 0.00611399 166 4 1 6.94241e-07 
-0.0921823 -0.233416 -2.50035 0.0025 0.822564 0.760759 2.31213 0.00607856 167 4 1 7.11072e-07 
-0.0891519 -0.228989 -2.57295 0.0025 0.827464 0.767112 2.31762 0.00604256 168 4 1 7.91945e-07 
-0.0861397 -0.224828 -2.69691 0.0025 0.832534 0.773702 2.32329 0.00600576 169 4 1 8.30852e-07 
-0.0831461 -0.220867 -2.78298 0.0025 0.837781 0.780535 2.32914 0.00596815 170 4 1 8.11604e-07 
-0.0801715 -0.217134 -2.85191 0.0025 0.843161 0.78756 2.33511 0.00593007 171 4 1 7.91882e-07 
-0.077216 -0.213469 -2.89691 0.0025 0.848633 0.794723 2.34117 0.00589183 172 4 1 7.19507e-07 
-0.0742796 -0.209961 -2.88154 0.0025 0.854135 0.801945 2.34722 0.00585388 173 4 1 7.28447e-07 
-0.071362 -0.206605 -2.93301 0.0025 0.859665 0.809225 2.35329 0.00581622 174 4 1 7.81881e-07 
-0.0684633 -0.203307 -2.99987 0.0025 0.865268 0.816616 2.35941 0.00577856 175 4 1 7.49876e-07 
-0.0655834 -0.200167 -3.04719 0.0025 0.8709 0.824056 2.36555 0.00574119 176 4 1 4.33245e-07 
-0.0627221 -0.196662 -2.80956 0.0025 0.876291 0.831185 2.37141 0.00570587 177 4 1 -2.66308e-07 
-0.0598775 -0.192076 -2.14765 0.0025 0.880925 0.83734 2.37643 0.00567585 178 4 1 -5.99717e-07 
-0.0570462 -0.186234 -1.66137 0.0025 0.884651 0.842328 2.38043 0.00565195 179 4 1 5.65626e-09 
-0.0542255 -0.180147 -1.92852 0.0025 0.888103 0.846945 2.38411 0.00562998 180 4 1 5.38187e-07 
-0.0514162 -0.174818 -2.18159 0.0025 0.891719 0.851733 2.38801 0.00560715 181 4 1 -5.39573e-07 
-0.0486184 -0.168532 -1.05717 0.0025 0.894512 0.855432 2.39104 0.00558964 182 4 1 -1.90485e-06 
-0.0458265 -0.158619 0.464896 0.0025 0.895357 0.856624 2.39194 0.00558436 183 4 1 -7.7912e-07 
-0.043034 -0.147406 -0.11951 0.0025 0.89551 0.856907 2.39202 0.00558341 184 4 1 1.60614e-06 
-0.0402431 -0.139774 -1.84441 0.0025 0.897149 0.859046 2.39376 0.00557321 185 4 1 7.9267e-07 
-0.0374608 -0.133561 -1.05517 0.0025 0.899316 0.861858 2.39616 0.00555978 186 4 1 -2.06781e-06 
-0.0346833 -0.123068 1.11909 0.0025 0.899459 0.862115 2.39633 0.0055589 187 3 1 -1.10976e-06 
-0.0319019 -0.110671 0.351189 0.0025 0.898651 0.86113 2.39537 0.00556389 188 5 1 1.86322e-06 
-0.0291194 -0.101889 -1.53088 0.0025 0.899567 0.862295 2.39634 0.00555823 189 4 1 7.84463e-07 
-0.0263436 -0.0941679 -0.619631 0.0025 0.901118 0.864299 2.39808 0.00554867 190 4 1 -1.61317e-06 
-0.0235708 -0.0840192 0.750565 0.0025 0.901161 0.864415 2.39811 0.0055484 191 3 1 -4.79453e-07 
-0.0207952 -0.0733925 -0.0153935 0.0025 0.900753 0.863908 2.39763 0.00555091 192 5 1 8.66834e-07 
-0.0180199 -0.063929 -0.471303 0.0025 0.90111 0.864357 2.39803 0.00554871 193 4 1 1.28486e-07 
-0.0152465 -0.0541876 -0.198057 0.0025 0.901608 0.86501 2.39858 0.00554565 194 4 1 -4.0808e-07 
-0.0124742 -0.0445387 0.12527 0.0025 0.901723 0.865183 2.3987 0.00554494 195 4 1 -4.86991e-08 
-0.00970158 -0.0341132 -0.127623 0.0025 0.90177 0.865257 2.39876 0.00554465 196 4 1 1.40731e-07 
-0.00692956 -0.0244228 -0.135826 0.0025 0.901963 0.8655 2.39896 0.00554347 197 4 1 -1.20407e-07 
-0.00415812 -0.0155431 0.067217 0.0025 0.902009 0.865559 2.39902 0.00554318 198 3 1 -2.5432e-07 
-0.00138638 -0.00550393 0.250853 0.0025 0.901795 0.865301 2.3988 0.0055445 199 4 1 1.98468e-07 
0.00138638 0.00550393 -0.250853 0.0025 0.901795 0.865301 2.3988 0.0055445 200 4 1 1.98468e-07 
0.00415812 0.0155431 -0.067217 0.0025 0.902009 0.865559 2.39902 0.00554318 201 3 1 -2.5432e-07 
0.00692956 0.0244228 0.135826 0.0025 0.901963 0.8655 2.39896 0.00554347 202 4 1 -1.20407e-07 
0.00970158 0.0341132 0.127623 0.0025 0.90177 0.865257 2.39876 0.00554465 203 4 1 1.40731e-07 
0.0124742 0.0445387 -0.12527 0.0025 0.901723 0.865183 2.3987 0.00554494 204 4 1 -4.86991e-08 
0.0152465 0.0541876 0.198057 0.0025 0.901608 0.86501 2.39858 0.00554565 205 4 1 -4.0808e-07 
0.0180199 0.063929 0.471303 0.0025 0.90111 0.864357 2.39803 0.00554871 206 4 1 1.28486e-07 
0.0207952 0.0733925 0.0153935 0.0025 0.900753 0.863908 2.39763 0.00555091 207 5 1 8.66834e-07 
0.0235708 0.0840192 -0.750565 0.0025 0.901161 0.864415 2.39811 0.0055484 208 3 1 -4.79453e-07 
0.0263436 0.0941679 0.619631 0.0025 0.901118 0.864299 2.39808 0.00554867 209 4 1 -1.61317e-06 
0.0291194 0.101889 1.53088 0.0025 0.899567 0.862295 2.39634 0.00555823 210 4 1 7.84463e-07 
