# Time [s]: 0.448512
# Columns: pos [m], vel [m/s], acc [m/s^2], mass [kg], dens [kg/m^3], pres [Pa], ene [J/kg], sml [m], id, neighbor, alpha, gradh, ...additional?
1.20034 -0.673076 -1.39356e-05 0.0025 0.51106 0.432738 2.15252 0.00978358 0 4 1 -0.000134225 
1.20512 -0.673077 -1.46242e-05 0.0025 0.536918 0.426201 1.95006 0.0093124 1 4 1 0.000179254 
1.20965 -0.673077 -1.55703e-05 0.0025 0.548249 0.430871 1.96852 0.00911995 2 3 1 -1.90585e-05 
1.21424 -0.673078 -1.77432e-05 0.0025 0.545984 0.429207 1.96466 0.00915777 3 5 1 3.4856e-06 
1.21881 -0.673079 -2.25006e-05 0.0025 0.546383 0.429363 1.9646 0.00915109 4 4 1 -1.38664e-07 
1.22339 -0.673079 -3.1616e-05 0.0025 0.546394 0.429334 1.96437 0.0091509 5 4 1 1.43768e-07 
1.22796 -0.67308 -4.72796e-05 0.0025 0.546418 0.429333 1.96431 0.00915051 6 4 1 -3.4526e-09 
1.23254 -0.673081 -7.20802e-05 0.0025 0.546431 0.429331 1.96425 0.00915028 7 4 1 8.32073e-09 
1.23711 -0.673082 -0.000108771 0.0025 0.546446 0.429331 1.96419 0.00915003 8 4 1 4.88347e-09 
1.24169 -0.673083 -0.000159681 0.0025 0.546459 0.429331 1.96415 0.00914982 9 4 1 5.63433e-09 
1.24626 -0.673085 -0.000225742 0.0025 0.546471 0.429331 1.96411 0.00914961 10 4 1 -2.04121e-09 
1.25084 -0.673087 -0.000305335 0.0025 0.546483 0.429332 1.96407 0.00914941 11 4 1 4.96152e-09 
1.25541 -0.673089 -0.000393348 0.0025 0.546494 0.429332 1.96403 0.00914923 12 4 1 3.10405e-09 
1.25999 -0.673092 -0.000480982 0.0025 0.546504 0.429333 1.964 0.00914906 13 4 1 3.82225e-09 
1.26456 -0.673095 -0.000556653 0.0025 0.546514 0.429335 1.96397 0.0091489 14 4 1 2.33898e-09 
1.26914 -0.673099 -0.000607995 0.0025 0.546523 0.429336 1.96394 0.00914875 15 4 1 -1.42386e-09 
1.27371 -0.673102 -0.000624515 0.0025 0.546532 0.429337 1.96392 0.0091486 16 4 1 4.97375e-09 
1.27829 -0.673106 -0.000600084 0.0025 0.54654 0.429339 1.9639 0.00914847 17 4 1 1.45167e-09 
1.28286 -0.67311 -0.000534479 0.0025 0.546547 0.42934 1.96388 0.00914834 18 4 1 -1.32531e-09 
1.28743 -0.673114 -0.000433461 0.0025 0.546554 0.429342 1.96386 0.00914823 19 4 1 2.48169e-09 
1.29201 -0.673117 -0.000307402 0.0025 0.546561 0.429343 1.96384 0.00914812 20 4 1 8.91192e-10 
1.29658 -0.67312 -0.000168953 0.0025 0.546566 0.429343 1.96382 0.00914802 21 4 1 8.85366e-10 
1.30116 -0.673122 -3.04998e-05 0.0025 0.546571 0.429344 1.96381 0.00914794 22 4 1 7.55051e-10 
1.30573 -0.673124 9.78832e-05 0.0025 0.546575 0.429344 1.96379 0.00914787 23 4 1 -4.437e-10 
1.3103 -0.673125 0.00020956 0.0025 0.546579 0.429343 1.96378 0.00914781 24 4 1 1.25488e-09 
1.31488 -0.673126 0.000301485 0.0025 0.546582 0.429343 1.96376 0.00914776 25 4 1 5.71976e-10 
1.31945 -0.673127 0.000373643 0.0025 0.546585 0.429342 1.96375 0.00914771 26 4 1 -4.66581e-10 
1.32402 -0.673128 0.000428143 0.0025 0.546587 0.429341 1.96374 0.00914767 27 4 1 1.1708e-09 
1.3286 -0.673128 0.000468296 0.0025 0.546589 0.42934 1.96372 0.00914763 28 4 1 8.56328e-10 
1.33317 -0.673129 0.000497789 0.0025 0.546591 0.429339 1.96371 0.00914761 29 4 1 -7.47063e-10 
1.33775 -0.673129 0.000520027 0.0025 0.546593 0.429338 1.9637 0.00914758 30 4 1 5.41701e-10 
1.34232 -0.67313 0.000537653 0.0025 0.546594 0.429336 1.96369 0.00914756 31 4 1 2.00869e-09 
1.34689 -0.673131 0.00055236 0.0025 0.546595 0.429335 1.96368 0.00914754 32 4 1 -8.16088e-10 
1.35147 -0.673132 0.000565041 0.0025 0.546596 0.429333 1.96367 0.00914752 33 4 1 -7.89113e-10 
1.35604 -0.673133 0.000576183 0.0025 0.546597 0.429332 1.96366 0.00914751 34 4 1 2.15478e-09 
1.36062 -0.673134 0.000586251 0.0025 0.546598 0.42933 1.96365 0.0091475 35 4 1 -1.70156e-10 
1.36519 -0.673136 0.000595907 0.0025 0.546598 0.429329 1.96364 0.00914749 36 4 1 -8.35736e-10 
1.36976 -0.673138 0.00060613 0.0025 0.546599 0.429327 1.96363 0.00914748 37 4 1 1.47455e-09 
1.37434 -0.67314 0.000618463 0.0025 0.546599 0.429326 1.96362 0.00914748 38 4 1 1.45353e-10 
1.37891 -0.673142 0.000635388 0.0025 0.546599 0.429324 1.96362 0.00914748 39 4 1 -6.83396e-10 
1.38348 -0.673144 0.000660366 0.0025 0.546599 0.429322 1.96361 0.00914747 40 3 1 7.46979e-10 
1.38806 -0.673147 0.000696893 0.0025 0.546599 0.429321 1.9636 0.00914748 41 4 1 4.53404e-10 
1.39263 -0.67315 0.000746639 0.0025 0.546599 0.429319 1.96359 0.00914748 42 4 1 -6.40634e-10 
1.39721 -0.673153 0.000807855 0.0025 0.546598 0.429317 1.96358 0.00914749 43 4 1 -4.32453e-11 
1.40178 -0.673157 0.000875734 0.0025 0.546597 0.429315 1.96358 0.0091475 44 4 1 9.18247e-10 
1.40635 -0.67316 0.000945304 0.0025 0.546596 0.429312 1.96357 0.00914752 45 4 1 -4.21628e-10 
1.41093 -0.673164 0.00101528 0.0025 0.546595 0.42931 1.96356 0.00914754 46 4 1 -7.74563e-10 
1.4155 -0.673168 0.00108984 0.0025 0.546594 0.429307 1.96355 0.00914756 47 4 1 5.22858e-10 
1.42007 -0.673173 0.0011762 0.0025 0.546592 0.429304 1.96355 0.00914758 48 4 1 1.77319e-10 
1.42465 -0.673178 0.00127915 0.0025 0.546591 0.429301 1.96354 0.00914762 49 4 1 -7.47139e-10 
1.42922 -0.673183 0.00139623 0.0025 0.546588 0.429297 1.96353 0.00914765 50 4 1 -4.62436e-10 
1.4338 -0.673188 0.00151775 0.0025 0.546586 0.429294 1.96352 0.00914769 51 4 1 4.6864e-10 
1.43837 -0.673193 0.00163242 0.0025 0.546583 0.42929 1.96351 0.00914774 52 4 1 -2.37409e-10 
1.44294 -0.6732 0.00173529 0.0025 0.54658 0.429285 1.96351 0.00914779 53 4 1 -9.60318e-10 
1.44752 -0.673206 0.00183239 0.0025 0.546577 0.429281 1.9635 0.00914784 54 4 1 -1.05443e-10 
1.45209 -0.673214 0.00193868 0.0025 0.546573 0.429276 1.96349 0.0091479 55 4 1 4.73775e-10 
1.45666 -0.673222 0.0020704 0.0025 0.546569 0.42927 1.96348 0.00914797 56 4 1 -6.1905e-10 
1.46124 -0.673231 0.00223697 0.0025 0.546565 0.429265 1.96347 0.00914804 57 4 1 -1.0964e-09 
1.46581 -0.673241 0.00243718 0.0025 0.54656 0.429259 1.96346 0.00914812 58 4 1 4.1095e-11 
1.47039 -0.673251 0.00266077 0.0025 0.546555 0.429252 1.96344 0.00914821 59 4 1 -2.99873e-10 
1.47496 -0.673262 0.0028938 0.0025 0.546549 0.429245 1.96343 0.00914831 60 4 1 -1.03968e-09 
1.47954 -0.673275 0.00312616 0.0025 0.546543 0.429237 1.96342 0.00914842 61 4 1 -8.65495e-10 
1.48411 -0.673288 0.00335999 0.0025 0.546536 0.429229 1.96341 0.00914853 62 4 1 -2.42992e-10 
1.48868 -0.673303 0.00361501 0.0025 0.546528 0.429219 1.96339 0.00914866 63 4 1 -6.7052e-10 
1.49326 -0.67332 0.0039241 0.0025 0.546519 0.429209 1.96338 0.0091488 64 4 1 -1.25681e-09 
1.49783 -0.673338 0.00431617 0.0025 0.54651 0.429199 1.96336 0.00914896 65 4 1 -1.07796e-09 
-0.497593 -0.673358 0.00479493 0.0025 0.5465 0.429187 1.96334 0.00914913 66 4 1 -1.20892e-09 
-0.493018 -0.67338 0.00533113 0.0025 0.546489 0.429173 1.96332 0.00914932 67 4 1 -1.60252e-09 
-0.488443 -0.673404 0.00588181 0.0025 0.546476 0.429159 1.9633 0.00914954 68 4 1 -1.73274e-09 
-0.483869 -0.67343 0.00642967 0.0025 0.546462 0.429142 1.96328 0.00914977 69 4 1 -1.49513e-09 
-0.479294 -0.67346 0.00701317 0.0025 0.546446 0.429125 1.96325 0.00915004 70 4 1 -1.83346e-09 
-0.474719 -0.673493 0.00771533 0.0025 0.546429 0.429105 1.96323 0.00915033 71 4 1 -2.36656e-09 
-0.470143 -0.67353 0.00861007 0.0025 0.546409 0.429083 1.9632 0.00915065 72 4 1 -2.60129e-09 
-0.465568 -0.673571 0.00970454 0.0025 0.546388 0.429059 1.96316 0.00915101 73 4 1 -3.10527e-09 
-0.460992 -0.673617 0.0109289 0.0025 0.546364 0.429032 1.96313 0.00915142 74 4 1 -3.62773e-09 
-0.456416 -0.673667 0.0121929 0.0025 0.546336 0.429001 1.96308 0.00915187 75 4 1 -3.7511e-09 
-0.45184 -0.673723 0.0134709 0.0025 0.546306 0.428967 1.96304 0.00915238 76 4 1 -3.77649e-09 
-0.447264 -0.673786 0.0148388 0.0025 0.546272 0.42893 1.96299 0.00915295 77 4 1 -4.02023e-09 
-0.442687 -0.673857 0.0164126 0.0025 0.546235 0.428888 1.96293 0.00915357 78 4 1 -4.53624e-09 
-0.438111 -0.673936 0.018229 0.0025 0.546194 0.428843 1.96287 0.00915426 79 4 1 -4.98537e-09 
-0.433533 -0.674023 0.0201988 0.0025 0.546148 0.428793 1.9628 0.00915502 80 4 1 -5.13532e-09 
-0.428956 -0.674117 0.022186 0.0025 0.546099 0.428737 1.96273 0.00915586 81 4 1 -4.95793e-09 
-0.424377 -0.674218 0.02407 0.0025 0.546044 0.428678 1.96265 0.00915676 82 4 1 -4.35292e-09 
-0.419799 -0.674327 0.0257064 0.0025 0.545987 0.428614 1.96257 0.00915773 83 4 1 -3.24437e-09 
-0.41522 -0.674442 0.0269372 0.0025 0.545926 0.428547 1.96248 0.00915875 84 4 1 -1.71425e-09 
-0.41064 -0.674562 0.0276547 0.0025 0.545864 0.428478 1.96239 0.0091598 85 4 1 1.55988e-10 
-0.40606 -0.674685 0.0277776 0.0025 0.545801 0.428409 1.96229 0.00916085 86 4 1 2.27269e-09 
-0.401479 -0.674806 0.0271963 0.0025 0.54574 0.428342 1.96221 0.00916187 87 4 1 4.78737e-09 
-0.396898 -0.674921 0.0256617 0.0025 0.545683 0.428279 1.96212 0.00916282 88 4 1 7.63748e-09 
-0.392316 -0.675025 0.0231209 0.0025 0.545633 0.428224 1.96205 0.00916368 89 4 1 1.05834e-08 
-0.387734 -0.67511 0.0196341 0.0025 0.54559 0.428177 1.96199 0.00916438 90 4 1 1.40794e-08 
-0.383152 -0.675171 0.0138638 0.0025 0.54556 0.428143 1.96194 0.0091649 91 4 1 1.69293e-08 
-0.378569 -0.675208 0.00757605 0.0025 0.545543 0.428126 1.96192 0.00916517 92 5 1 2.65809e-08 
-0.373987 -0.675222 -0.00477474 0.0025 0.545549 0.428133 1.96193 0.00916507 93 4 1 4.44927e-08 
-0.369404 -0.675156 -0.0220487 0.0025 0.545592 0.428181 1.96199 0.00916435 94 4 1 8.07144e-08 
-0.364822 -0.674985 -0.0543729 0.0025 0.545704 0.428308 1.96214 0.00916248 95 4 1 2.10053e-07 
-0.360242 -0.67451 -0.171173 0.0025 0.545987 0.428624 1.96255 0.00915773 96 4 1 3.61592e-07 
-0.355665 -0.673423 -0.317797 0.0025 0.546554 0.429249 1.96336 0.00914823 97 4 1 4.17437e-07 
-0.351094 -0.671744 -0.449992 0.0025 0.547435 0.430219 1.96463 0.00913351 98 4 1 4.71691e-07 
-0.346531 -0.669466 -0.600254 0.0025 0.548648 0.431558 1.96637 0.00911331 99 4 1 6.29164e-07 
-0.34198 -0.6664 -0.814505 0.0025 0.550273 0.433353 1.9687 0.00908639 100 4 1 8.20446e-07 
-0.337445 -0.662359 -1.05695 0.0025 0.552393 0.435692 1.97173 0.00905153 101 4 1 9.20086e-07 
-0.332929 -0.657357 -1.27219 0.0025 0.555002 0.438571 1.97545 0.00900898 102 4 1 8.88544e-07 
-0.328436 -0.651617 -1.41439 0.0025 0.557999 0.441884 1.97971 0.00896059 103 4 1 7.8166e-07 
-0.323968 -0.64546 -1.49056 0.0025 0.561246 0.445484 1.98431 0.00890875 104 4 1 7.14103e-07 
-0.319527 -0.639064 -1.54749 0.0025 0.564651 0.449272 1.98912 0.00885502 105 4 1 7.27245e-07 
-0.315113 -0.632474 -1.61193 0.0025 0.568195 0.453225 1.9941 0.00879979 106 4 1 7.87307e-07 
-0.310727 -0.625618 -1.69013 0.0025 0.571891 0.457358 1.99928 0.00874293 107 4 1 8.5744e-07 
-0.30637 -0.618488 -1.7769 0.0025 0.575755 0.461691 2.00467 0.00868425 108 4 1 9.0618e-07 
-0.302043 -0.611071 -1.85865 0.0025 0.579789 0.466225 2.01028 0.00862383 109 4 1 9.03397e-07 
-0.297746 -0.60344 -1.91426 0.0025 0.583959 0.470924 2.01605 0.00856225 110 4 1 8.68676e-07 
-0.29348 -0.595693 -1.95097 0.0025 0.588219 0.475738 2.02192 0.00850024 111 4 1 8.18348e-07 
-0.289246 -0.587919 -1.96317 0.0025 0.592522 0.480616 2.02782 0.0084385 112 4 1 7.6772e-07 
-0.285042 -0.58017 -1.96631 0.0025 0.596832 0.485516 2.03371 0.00837756 113 4 1 7.0887e-07 
-0.280868 -0.572526 -1.94638 0.0025 0.601115 0.490399 2.03954 0.00831788 114 4 1 6.59933e-07 
-0.276724 -0.565009 -1.92841 0.0025 0.605349 0.495242 2.04527 0.00825969 115 4 1 6.3654e-07 
-0.272608 -0.557645 -1.91044 0.0025 0.609535 0.500043 2.05091 0.00820297 116 4 1 6.29193e-07 
-0.268521 -0.550391 -1.90464 0.0025 0.613682 0.504812 2.05648 0.00814754 117 4 1 6.09478e-07 
-0.26446 -0.543224 -1.88682 0.0025 0.61779 0.509549 2.06198 0.00809337 118 4 1 5.70603e-07 
-0.260427 -0.536185 -1.86324 0.0025 0.621846 0.514239 2.06738 0.00804057 119 4 1 5.63758e-07 
-0.25642 -0.529274 -1.85594 0.0025 0.62586 0.518893 2.07271 0.007989 120 4 1 5.69482e-07 
-0.252438 -0.522424 -1.85221 0.0025 0.629848 0.523526 2.07798 0.00793843 121 4 1 5.39645e-07 
-0.248481 -0.515672 -1.83017 0.0025 0.633799 0.52813 2.08319 0.00788893 122 4 1 5.26891e-07 
-0.244549 -0.509027 -1.82566 0.0025 0.637716 0.532706 2.08833 0.00784048 123 4 1 5.42003e-07 
-0.240641 -0.502423 -1.82878 0.0025 0.641618 0.537275 2.09343 0.00779279 124 4 1 5.33298e-07 
-0.236756 -0.495873 -1.8235 0.0025 0.645508 0.54184 2.09849 0.00774584 125 4 1 5.16865e-07 
-0.232895 -0.489392 -1.81671 0.0025 0.64938 0.546396 2.10352 0.00769965 126 4 1 5.3415e-07 
-0.229056 -0.482947 -1.83157 0.0025 0.653251 0.550963 2.10853 0.00765402 127 4 1 5.53588e-07 
-0.225241 -0.476495 -1.84478 0.0025 0.657141 0.555561 2.11354 0.00760872 128 4 1 5.63667e-07 
-0.221448 -0.470029 -1.86625 0.0025 0.661056 0.5602 2.11857 0.00756366 129 4 1 5.63399e-07 
-0.217677 -0.463559 -1.87613 0.0025 0.664995 0.564879 2.12361 0.00751885 130 4 1 5.66991e-07 
-0.213929 -0.457073 -1.89695 0.0025 0.66896 0.569601 2.12866 0.00747428 131 4 1 5.93531e-07 
-0.210203 -0.450551 -1.92786 0.0025 0.672969 0.574386 2.13375 0.00742976 132 4 1 6.1305e-07 
-0.206499 -0.443971 -1.96106 0.0025 0.67703 0.579244 2.1389 0.0073852 133 4 1 6.13584e-07 
-0.202817 -0.437329 -1.98604 0.0025 0.681138 0.584169 2.14408 0.00734065 134 4 1 5.77306e-07 
-0.199158 -0.430711 -1.98185 0.0025 0.685264 0.589129 2.14926 0.00729646 135 4 1 5.81055e-07 
-0.195521 -0.424098 -2.01045 0.0025 0.689408 0.594123 2.15445 0.0072526 136 4 1 6.07676e-07 
-0.191906 -0.417438 -2.03472 0.0025 0.69359 0.599173 2.15967 0.00720887 137 4 1 5.76538e-07 
-0.188312 -0.410793 -2.03254 0.0025 0.697785 0.604253 2.16489 0.00716553 138 4 1 5.60953e-07 
-0.18474 -0.404187 -2.04357 0.0025 0.701983 0.609349 2.17009 0.00712268 139 4 1 5.64883e-07 
-0.181189 -0.397605 -2.05175 0.0025 0.70619 0.614466 2.17528 0.00708025 140 4 1 5.50972e-07 
-0.17766 -0.391034 -2.0546 0.0025 0.710397 0.619597 2.18045 0.00703832 141 4 1 5.41311e-07 
-0.174151 -0.38452 -2.05834 0.0025 0.714601 0.624736 2.1856 0.00699691 142 4 1 5.23361e-07 
-0.170663 -0.378035 -2.05073 0.0025 0.718793 0.629873 2.19072 0.0069561 143 4 1 5.22199e-07 
-0.167195 -0.37161 -2.05971 0.0025 0.722978 0.635014 2.19581 0.00691584 144 4 1 5.24106e-07 
-0.163747 -0.365201 -2.06073 0.0025 0.727163 0.640165 2.20089 0.00687604 145 4 1 5.20677e-07 
-0.160319 -0.358824 -2.07075 0.0025 0.731347 0.645328 2.20595 0.0068367 146 4 1 5.11174e-07 
-0.15691 -0.352477 -2.06786 0.0025 0.735529 0.650499 2.21098 0.00679783 147 4 1 4.96819e-07 
-0.153521 -0.346182 -2.069 0.0025 0.7397 0.655669 2.21599 0.0067595 148 4 1 4.87118e-07 
-0.15015 -0.339931 -2.06311 0.0025 0.743859 0.660836 2.22096 0.0067217 149 4 1 4.8463e-07 
-0.146799 -0.333733 -2.06811 0.0025 0.74801 0.666006 2.22591 0.0066844 150 4 1 5.06577e-07 
-0.143466 -0.327537 -2.09015 0.0025 0.752172 0.671199 2.23086 0.00664741 151 4 1 4.83243e-07 
-0.140151 -0.32135 -2.07633 0.0025 0.756331 0.676399 2.23578 0.00661086 152 4 1 4.41981e-07 
-0.136855 -0.315273 -2.05931 0.0025 0.760461 0.681576 2.24066 0.00657496 153 4 1 4.65443e-07 
-0.133576 -0.309225 -2.0774 0.0025 0.764583 0.686755 2.24551 0.00653951 154 4 1 4.89006e-07 
-0.130316 -0.303182 -2.09163 0.0025 0.768723 0.691966 2.25036 0.00650429 155 4 1 4.87145e-07 
-0.127072 -0.297146 -2.1074 0.0025 0.772878 0.697207 2.25522 0.00646932 156 4 1 4.59308e-07 
-0.123846 -0.291159 -2.0941 0.0025 0.77703 0.702455 2.26006 0.00643476 157 4 1 4.30736e-07 
-0.120637 -0.285278 -2.08311 0.0025 0.781159 0.707688 2.26485 0.00640075 158 4 1 4.69046e-07 
-0.117445 -0.279473 -2.11439 0.0025 0.7853 0.712947 2.26965 0.00636699 159 4 1 5.11804e-07 
-0.11427 -0.273678 -2.14886 0.0025 0.789489 0.718276 2.27448 0.00633321 160 4 1 5.08541e-07 
-0.111112 -0.267965 -2.16798 0.0025 0.79372 0.723671 2.27935 0.00629945 161 4 1 5.10819e-07 
-0.107971 -0.262358 -2.19467 0.0025 0.79799 0.729128 2.28425 0.00626574 162 4 1 5.18829e-07 
-0.104846 -0.256925 -2.21438 0.0025 0.802305 0.734655 2.28918 0.00623204 163 4 1 5.7657e-07 
-0.101739 -0.251691 -2.28753 0.0025 0.806705 0.740304 2.29419 0.00619805 164 4 1 6.69513e-07 
-0.0986482 -0.24658 -2.38599 0.0025 0.81125 0.746151 2.29935 0.00616332 165 4 1 6.96106e-07 
-0.0955753 -0.241703 -2.45544 0.0025 0.815946 0.752205 2.30467 0.00612786 166 4 1 7.38282e-07 
-0.0925203 -0.237054 -2.56244 0.0025 0.820799 0.758476 2.31014 0.00609163 167 4 1 7.59651e-07 
-0.0894836 -0.232722 -2.62566 0.0025 0.825804 0.764958 2.31576 0.00605471 168 4 1 7.77313e-07 
-0.0864655 -0.228719 -2.71803 0.0025 0.830949 0.77164 2.32153 0.00601721 169 4 1 8.3435e-07 
-0.0834663 -0.224892 -2.81748 0.0025 0.836254 0.778543 2.32744 0.00597905 170 4 1 7.97112e-07 
-0.0804864 -0.221227 -2.84647 0.0025 0.841668 0.785608 2.33346 0.00594059 171 4 1 7.8047e-07 
-0.0775257 -0.217642 -2.90764 0.0025 0.847157 0.79279 2.33954 0.00590209 172 4 1 7.65276e-07 
-0.0745843 -0.214126 -2.91831 0.0025 0.852703 0.800064 2.34565 0.00586371 173 4 1 7.28582e-07 
-0.0716619 -0.210824 -2.94401 0.0025 0.858273 0.807391 2.35177 0.00582565 174 4 1 7.83349e-07 
-0.0687585 -0.207654 -3.04606 0.0025 0.863898 0.814801 2.35792 0.00578772 175 4 1 5.84024e-07 
-0.0658741 -0.204453 -2.90289 0.0025 0.869408 0.822066 2.36393 0.00575104 176 4 1 8.74491e-09 
-0.0630074 -0.200432 -2.41975 0.0025 0.874356 0.828613 2.36932 0.00571849 177 4 1 -4.87861e-07 
-0.0601556 -0.194917 -1.82782 0.0025 0.878437 0.834047 2.37373 0.00569193 178 4 1 -2.7634e-07 
-0.0573155 -0.188677 -1.78275 0.0025 0.881969 0.838767 2.37752 0.00566913 179 4 1 4.4031e-07 
-0.0544864 -0.183133 -2.19989 0.0025 0.88559 0.843569 2.38142 0.00564595 180 4 1 1.13483e-08 
-0.0516695 -0.177613 -1.61904 0.0025 0.888865 0.847884 2.38498 0.00562515 181 4 1 -1.65592e-06 
-0.0488613 -0.16919 0.111188 0.0025 0.890377 0.849928 2.38662 0.0056156 182 4 1 -1.48229e-06 
-0.0460539 -0.157925 0.357387 0.0025 0.89047 0.850151 2.38665 0.00561501 183 4 1 1.03741e-06 
-0.0432463 -0.148565 -1.48064 0.0025 0.891585 0.851633 2.3878 0.00560799 184 4 1 1.57767e-06 
-0.0404459 -0.142447 -1.69791 0.0025 0.893986 0.854731 2.39044 0.00559293 185 4 1 -1.39758e-06 
-0.0376533 -0.133897 0.570467 0.0025 0.894939 0.856015 2.39152 0.00558697 186 3 1 -1.96922e-06 
-0.0348589 -0.12141 0.995891 0.0025 0.894063 0.854962 2.39051 0.00559244 187 5 1 1.02531e-06 
-0.0320609 -0.111165 -1.00715 0.0025 0.894211 0.855151 2.39061 0.00559152 188 4 1 1.66109e-06 
-0.0292674 -0.103965 -1.19786 0.0025 0.895809 0.857199 2.39238 0.00558155 189 4 1 -8.32608e-07 
-0.0264793 -0.0944157 0.234973 0.0025 0.896594 0.858262 2.39326 0.00557666 190 3 1 -1.18924e-06 
-0.0236908 -0.0831226 0.389124 0.0025 0.896293 0.857911 2.39289 0.00557853 191 4 1 3.57074e-07 
-0.0209008 -0.0736548 -0.298932 0.0025 0.896282 0.857886 2.39286 0.0055786 192 5 1 4.53842e-07 
-0.0181122 -0.0644448 -0.227112 0.0025 0.896667 0.858391 2.3933 0.00557621 193 4 1 -6.88188e-08 
-0.0153246 -0.0544819 -0.194769 0.0025 0.897002 0.858837 2.39367 0.00557413 194 4 1 -3.18687e-07 
-0.012538 -0.044249 0.218587 0.0025 0.897053 0.858919 2.39372 0.00557381 195 4 1 5.42526e-08 
-0.00975079 -0.0344342 -0.291418 0.0025 0.897157 0.859071 2.39383 0.00557316 196 4 1 3.88551e-07 
-0.00696486 -0.0247883 -0.334754 0.0025 0.897584 0.859612 2.39431 0.00557051 197 3 1 -4.97761e-07 
-0.00418028 -0.0151811 0.409182 0.0025 0.897521 0.859532 2.39425 0.0055709 198 4 1 -5.17611e-07 
-0.00139396 -0.00500391 0.390001 0.0025 0.896983 0.858852 2.39365 0.00557424 199 4 1 5.659e-07 
0.00139396 0.00500391 -0.390001 0.0025 0.896983 0.858852 2.39365 0.00557424 200 4 1 5.659e-07 
0.00418028 0.0151811 -0.409182 0.0025 0.897521 0.859532 2.39425 0.0055709 201 4 1 -5.17611e-07 
0.00696486 0.0247883 0.334754 0.0025 0.897584 0.859612 2.39431 0.00557051 202 3 1 -4.97761e-07 
0.00975079 0.0344342 0.291418 0.0025 0.897157 0.859071 2.39383 0.00557316 203 4 1 3.88551e-07 
0.012538 0.044249 -0.218587 0.0025 0.897053 0.858919 2.39372 0.00557381 204 4 1 5.42526e-08 
0.0153246 0.0544819 0.194769 0.0025 0.897002 0.858837 2.39367 0.00557413 205 4 1 -3.18687e-07 
0.0181122 0.0644448 0.227112 0.0025 0.896667 0.858391 2.3933 0.00557621 206 4 1 -6.88188e-08 
0.0209008 0.0736548 0.298932 0.0025 0.896282 0.857886 2.39286 0.0055786 207 5 1 4.53842e-07 
0.0236908 0.0831226 -0.389124 0.0025 0.896293 0.857911 2.39289 0.00557853 208 4 1 3.57074e-07 
0.0264793 0.0944157 -0.234973 0.0025 0.896594 0.858262 2.39326 0.00557666 209 3 1 -1.18924e-06 
0.0292674 0.103965 1.19786 0.0025 0.895809 0.857199 2.39238 0.00558155 210 4 1 -8.32608e-07 
