# Time [s]: 0.451412
# Columns: pos [m], vel [m/s], acc [m/s^2], mass [kg], dens [kg/m^3], pres [Pa], ene [J/kg], sml [m], id, neighbor, alpha, gradh, ...additional?
1.19838 -0.673076 -1.88408e-05 0.0025 0.51106 0.432738 2.15252 0.00978358 0 4 1 -0.000134225 
1.20317 -0.673077 -2.01368e-05 0.0025 0.536918 0.426201 1.95006 0.0093124 1 4 1 0.000179254 
1.2077 -0.673077 -2.22658e-05 0.0025 0.548249 0.430872 1.96852 0.00911994 2 3 1 -1.90585e-05 
1.21229 -0.673078 -2.65323e-05 0.0025 0.545984 0.429208 1.96466 0.00915777 3 5 1 3.4856e-06 
1.21686 -0.673079 -3.45824e-05 0.0025 0.546383 0.429363 1.9646 0.00915109 4 4 1 -1.38655e-07 
1.22144 -0.673079 -4.84893e-05 0.0025 0.546394 0.429334 1.96437 0.0091509 5 4 1 1.43781e-07 
1.22601 -0.67308 -7.07066e-05 0.0025 0.546418 0.429333 1.96431 0.00915051 6 4 1 -3.4346e-09 
1.23059 -0.673081 -0.000103914 0.0025 0.546432 0.429331 1.96425 0.00915027 7 4 1 8.34349e-09 
1.23516 -0.673082 -0.000150544 0.0025 0.546446 0.429331 1.96419 0.00915003 8 4 1 4.90984e-09 
1.23974 -0.673084 -0.000211943 0.0025 0.54646 0.429331 1.96415 0.00914981 9 4 1 5.66154e-09 
1.24431 -0.673086 -0.000287288 0.0025 0.546472 0.429332 1.96411 0.0091496 10 4 1 -2.01783e-09 
1.24889 -0.673088 -0.000372603 0.0025 0.546484 0.429333 1.96407 0.0091494 11 4 1 4.97507e-09 
1.25346 -0.67309 -0.000460338 0.0025 0.546495 0.429334 1.96403 0.00914921 12 4 1 3.10174e-09 
1.25804 -0.673093 -0.000539914 0.0025 0.546506 0.429335 1.964 0.00914904 13 4 1 3.79988e-09 
1.26261 -0.673097 -0.00059935 0.0025 0.546515 0.429336 1.96397 0.00914888 14 4 1 2.29589e-09 
1.26718 -0.6731 -0.000627667 0.0025 0.546524 0.429337 1.96395 0.00914873 15 4 1 -1.48394e-09 
1.27176 -0.673104 -0.000617391 0.0025 0.546533 0.429339 1.96392 0.00914858 16 4 1 4.90438e-09 
1.27633 -0.673108 -0.000566382 0.0025 0.546541 0.42934 1.9639 0.00914844 17 4 1 1.38302e-09 
1.28091 -0.673112 -0.000478378 0.0025 0.546548 0.429342 1.96388 0.00914832 18 4 1 -1.38331e-09 
1.28548 -0.673115 -0.000362126 0.0025 0.546555 0.429343 1.96386 0.00914821 19 4 1 2.44186e-09 
1.29006 -0.673118 -0.000229395 0.0025 0.546561 0.429344 1.96384 0.0091481 20 4 1 8.73139e-10 
1.29463 -0.67312 -9.25429e-05 0.0025 0.546567 0.429344 1.96382 0.00914801 21 4 1 8.88535e-10 
1.2992 -0.673122 3.76673e-05 0.0025 0.546572 0.429344 1.96381 0.00914793 22 4 1 7.75541e-10 
1.30378 -0.673123 0.000153486 0.0025 0.546576 0.429344 1.96379 0.00914786 23 4 1 -4.11631e-10 
1.30835 -0.673124 0.00025066 0.0025 0.546579 0.429344 1.96378 0.0091478 24 4 1 1.29251e-09 
1.31293 -0.673125 0.000328122 0.0025 0.546582 0.429343 1.96376 0.00914775 25 4 1 6.10028e-10 
1.3175 -0.673126 0.000387221 0.0025 0.546585 0.429342 1.96375 0.00914771 26 4 1 -4.31769e-10 
1.32207 -0.673126 0.000430818 0.0025 0.546588 0.429341 1.96374 0.00914767 27 4 1 1.20028e-09 
1.32665 -0.673127 0.00046243 0.0025 0.54659 0.42934 1.96372 0.00914763 28 4 1 8.79817e-10 
1.33122 -0.673127 0.000485526 0.0025 0.546591 0.429339 1.96371 0.0091476 29 4 1 -7.29091e-10 
1.33579 -0.673128 0.000502984 0.0025 0.546593 0.429338 1.9637 0.00914757 30 4 1 5.55408e-10 
1.34037 -0.673128 0.000516816 0.0025 0.546594 0.429337 1.96369 0.00914755 31 4 1 2.01966e-09 
1.34494 -0.673129 0.000528191 0.0025 0.546595 0.429335 1.96368 0.00914753 32 4 1 -8.06561e-10 
1.34952 -0.67313 0.000537736 0.0025 0.546596 0.429334 1.96367 0.00914752 33 4 1 -7.80321e-10 
1.35409 -0.673131 0.000545917 0.0025 0.546597 0.429332 1.96366 0.0091475 34 4 1 2.16298e-09 
1.35866 -0.673133 0.00055331 0.0025 0.546598 0.429331 1.96365 0.00914749 35 4 1 -1.62788e-10 
1.36324 -0.673134 0.00056076 0.0025 0.546599 0.429329 1.96364 0.00914748 36 4 1 -8.29728e-10 
1.36781 -0.673136 0.000569597 0.0025 0.546599 0.429328 1.96363 0.00914747 37 4 1 1.47821e-09 
1.37238 -0.673138 0.000581949 0.0025 0.5466 0.429326 1.96362 0.00914746 38 4 1 1.4527e-10 
1.37696 -0.67314 0.000600871 0.0025 0.5466 0.429325 1.96362 0.00914746 39 4 1 -6.88278e-10 
1.38153 -0.673143 0.000629721 0.0025 0.5466 0.429323 1.96361 0.00914746 40 3 1 7.3804e-10 
1.38611 -0.673145 0.000670651 0.0025 0.5466 0.429322 1.9636 0.00914746 41 4 1 4.43927e-10 
1.39068 -0.673148 0.000723 0.0025 0.5466 0.42932 1.96359 0.00914746 42 4 1 -6.45322e-10 
1.39525 -0.673151 0.00078305 0.0025 0.546599 0.429318 1.96359 0.00914747 43 4 1 -3.91412e-11 
1.39983 -0.673154 0.000846037 0.0025 0.546599 0.429316 1.96358 0.00914748 44 4 1 9.30445e-10 
1.4044 -0.673158 0.000909559 0.0025 0.546598 0.429314 1.96357 0.0091475 45 4 1 -4.07306e-10 
1.40897 -0.673161 0.000975903 0.0025 0.546597 0.429311 1.96356 0.00914751 46 4 1 -7.65644e-10 
1.41355 -0.673165 0.00105103 0.0025 0.546595 0.429308 1.96356 0.00914753 47 4 1 5.23291e-10 
1.41812 -0.673169 0.00114024 0.0025 0.546594 0.429306 1.96355 0.00914756 48 4 1 1.74376e-10 
1.4227 -0.673174 0.00124329 0.0025 0.546592 0.429303 1.96354 0.00914759 49 4 1 -7.42246e-10 
1.42727 -0.673179 0.00135297 0.0025 0.54659 0.429299 1.96353 0.00914762 50 4 1 -4.39786e-10 
1.43184 -0.673183 0.00145874 0.0025 0.546588 0.429296 1.96353 0.00914766 51 4 1 5.0991e-10 
1.43642 -0.673189 0.00155368 0.0025 0.546585 0.429292 1.96352 0.0091477 52 4 1 -1.87923e-10 
1.44099 -0.673195 0.00164004 0.0025 0.546582 0.429288 1.96351 0.00914775 53 4 1 -9.1866e-10 
1.44556 -0.673201 0.00172937 0.0025 0.546579 0.429283 1.9635 0.0091478 54 4 1 -8.33296e-11 
1.45014 -0.673208 0.00183689 0.0025 0.546576 0.429279 1.96349 0.00914786 55 4 1 4.76383e-10 
1.45471 -0.673216 0.00197375 0.0025 0.546572 0.429274 1.96348 0.00914792 56 4 1 -6.24057e-10 
1.45929 -0.673225 0.0021419 0.0025 0.546568 0.429268 1.96347 0.00914799 57 4 1 -1.09169e-09 
1.46386 -0.673234 0.00233388 0.0025 0.546564 0.429262 1.96346 0.00914807 58 4 1 7.00729e-11 
1.46843 -0.673244 0.00253692 0.0025 0.546559 0.429256 1.96345 0.00914815 59 4 1 -2.41169e-10 
1.47301 -0.673254 0.00273961 0.0025 0.546553 0.429249 1.96344 0.00914824 60 4 1 -9.58505e-10 
1.47758 -0.673266 0.00293986 0.0025 0.546547 0.429242 1.96343 0.00914834 61 4 1 -7.81641e-10 
1.48216 -0.673279 0.00315089 0.0025 0.54654 0.429234 1.96341 0.00914845 62 4 1 -1.81158e-10 
1.48673 -0.673293 0.00339982 0.0025 0.546533 0.429225 1.9634 0.00914857 63 4 1 -6.43912e-10 
1.49131 -0.673309 0.00371497 0.0025 0.546525 0.429216 1.96339 0.00914871 64 4 1 -1.25056e-09 
1.49588 -0.673326 0.0041068 0.0025 0.546517 0.429206 1.96337 0.00914885 65 4 1 -1.04844e-09 
-0.499545 -0.673345 0.00455635 0.0025 0.546507 0.429194 1.96335 0.00914901 66 4 1 -1.10847e-09 
-0.494971 -0.673365 0.0050256 0.0025 0.546496 0.429182 1.96333 0.00914919 67 4 1 -1.41824e-09 
-0.490396 -0.673387 0.00548906 0.0025 0.546484 0.429168 1.96331 0.0091494 68 4 1 -1.50833e-09 
-0.485821 -0.673412 0.00596548 0.0025 0.546471 0.429153 1.96329 0.00914962 69 4 1 -1.30803e-09 
-0.481247 -0.67344 0.00651992 0.0025 0.546456 0.429136 1.96327 0.00914986 70 4 1 -1.73355e-09 
-0.476672 -0.673471 0.00722551 0.0025 0.54644 0.429118 1.96324 0.00915013 71 4 1 -2.32349e-09 
-0.472096 -0.673506 0.00810962 0.0025 0.546422 0.429098 1.96321 0.00915043 72 4 1 -2.51258e-09 
-0.467521 -0.673544 0.0091297 0.0025 0.546402 0.429075 1.96318 0.00915077 73 4 1 -2.8727e-09 
-0.462946 -0.673586 0.0102073 0.0025 0.54638 0.429049 1.96315 0.00915115 74 4 1 -3.2478e-09 
-0.45837 -0.673633 0.0113011 0.0025 0.546354 0.429021 1.96311 0.00915157 75 4 1 -3.33888e-09 
-0.453794 -0.673686 0.0124576 0.0025 0.546326 0.428989 1.96307 0.00915205 76 4 1 -3.48385e-09 
-0.449218 -0.673745 0.0137837 0.0025 0.546295 0.428955 1.96302 0.00915257 77 4 1 -3.90607e-09 
-0.444641 -0.673811 0.0153535 0.0025 0.54626 0.428916 1.96297 0.00915315 78 4 1 -4.52181e-09 
-0.440065 -0.673885 0.0171403 0.0025 0.546221 0.428873 1.96291 0.0091538 79 4 1 -4.96422e-09 
-0.435488 -0.673966 0.0190488 0.0025 0.546179 0.428826 1.96285 0.00915452 80 4 1 -5.10372e-09 
-0.43091 -0.674054 0.020982 0.0025 0.546131 0.428774 1.96278 0.00915531 81 4 1 -4.98916e-09 
-0.426332 -0.67415 0.0228408 0.0025 0.54608 0.428717 1.9627 0.00915617 82 4 1 -4.51766e-09 
-0.421754 -0.674254 0.0245108 0.0025 0.546025 0.428656 1.96262 0.0091571 83 4 1 -3.64647e-09 
-0.417175 -0.674366 0.0259035 0.0025 0.545966 0.428591 1.96253 0.00915808 84 4 1 -2.50021e-09 
-0.412596 -0.674483 0.0269596 0.0025 0.545905 0.428524 1.96245 0.0091591 85 4 1 -1.10425e-09 
-0.408016 -0.674605 0.0275903 0.0025 0.545843 0.428455 1.96236 0.00916014 86 4 1 5.84346e-10 
-0.403436 -0.674727 0.0276262 0.0025 0.545782 0.428387 1.96227 0.00916117 87 4 1 2.763e-09 
-0.398855 -0.674845 0.0268925 0.0025 0.545722 0.428322 1.96218 0.00916217 88 4 1 5.25864e-09 
-0.394274 -0.674954 0.0252794 0.0025 0.545667 0.428261 1.9621 0.0091631 89 4 1 8.29029e-09 
-0.389692 -0.675049 0.0221704 0.0025 0.545618 0.428207 1.96203 0.00916392 90 4 1 1.29139e-08 
-0.38511 -0.675126 0.0165709 0.0025 0.54558 0.428165 1.96197 0.00916456 91 4 1 1.74943e-08 
-0.380527 -0.675184 0.00986068 0.0025 0.545556 0.428139 1.96194 0.00916496 92 4 1 1.72165e-08 
-0.375945 -0.675217 0.00696204 0.0025 0.545547 0.428129 1.96192 0.00916511 93 5 1 2.91162e-08 
-0.371362 -0.675205 -0.0109517 0.0025 0.545562 0.428147 1.96194 0.00916486 94 4 1 5.41001e-08 
-0.36678 -0.675099 -0.029734 0.0025 0.545623 0.428216 1.96203 0.00916384 95 4 1 1.12277e-07 
-0.362198 -0.67487 -0.0825458 0.0025 0.545778 0.428391 1.96225 0.00916123 96 4 1 2.64097e-07 
-0.357619 -0.674207 -0.22107 0.0025 0.546146 0.4288 1.96278 0.00915507 97 4 1 3.9188e-07 
-0.353043 -0.672924 -0.363283 0.0025 0.546817 0.429539 1.96374 0.00914382 98 4 1 4.25232e-07 
-0.348475 -0.671045 -0.493642 0.0025 0.547803 0.430624 1.96516 0.00912737 99 4 1 5.10547e-07 
-0.343916 -0.668537 -0.663915 0.0025 0.549139 0.4321 1.96707 0.00910516 100 4 1 6.88461e-07 
-0.33937 -0.66518 -0.889018 0.0025 0.550915 0.43406 1.96961 0.00907581 101 4 1 8.54888e-07 
-0.33484 -0.660839 -1.12555 0.0025 0.553188 0.436568 1.97286 0.00903853 102 4 1 9.15997e-07 
-0.330331 -0.655591 -1.3207 0.0025 0.555922 0.439588 1.97676 0.00899406 103 4 1 8.52067e-07 
-0.325846 -0.649709 -1.43738 0.0025 0.559 0.442993 1.98113 0.00894455 104 4 1 7.5024e-07 
-0.321386 -0.64349 -1.50543 0.0025 0.562291 0.446646 1.98579 0.00889219 105 4 1 6.9958e-07 
-0.316954 -0.637063 -1.55581 0.0025 0.565725 0.450468 1.99063 0.00883822 106 4 1 7.30728e-07 
-0.312548 -0.630426 -1.62692 0.0025 0.569293 0.454452 1.99564 0.00878282 107 4 1 7.99873e-07 
-0.308171 -0.623535 -1.70492 0.0025 0.573018 0.458621 2.00085 0.00872573 108 4 1 8.62394e-07 
-0.303822 -0.616365 -1.79114 0.0025 0.57691 0.462988 2.00628 0.00866686 109 4 1 8.98586e-07 
-0.299504 -0.608922 -1.86524 0.0025 0.580962 0.467545 2.0119 0.00860641 110 4 1 8.85388e-07 
-0.295216 -0.601302 -1.9153 0.0025 0.585137 0.472253 2.01767 0.00854501 111 4 1 8.41738e-07 
-0.290959 -0.59358 -1.94143 0.0025 0.589385 0.477059 2.02352 0.00848342 112 4 1 7.96225e-07 
-0.286732 -0.585858 -1.9547 0.0025 0.593666 0.481915 2.02939 0.00842224 113 4 1 7.42842e-07 
-0.282536 -0.578172 -1.94779 0.0025 0.597945 0.486783 2.03523 0.00836198 114 4 1 6.9088e-07 
-0.27837 -0.570611 -1.93468 0.0025 0.602192 0.49163 2.041 0.008303 115 4 1 6.48338e-07 
-0.274233 -0.563186 -1.91244 0.0025 0.606393 0.496437 2.04668 0.00824548 116 4 1 6.18288e-07 
-0.270125 -0.555899 -1.89406 0.0025 0.610541 0.501199 2.05227 0.00818945 117 4 1 6.15131e-07 
-0.266044 -0.548699 -1.88809 0.0025 0.61465 0.505928 2.05778 0.00813471 118 4 1 5.99041e-07 
-0.26199 -0.541601 -1.87255 0.0025 0.618722 0.510626 2.06322 0.00808117 119 4 1 5.60793e-07 
-0.257962 -0.534641 -1.84821 0.0025 0.622745 0.515279 2.06858 0.00802897 120 4 1 5.56425e-07 
-0.253961 -0.527787 -1.8443 0.0025 0.626727 0.519899 2.07386 0.00797795 121 4 1 5.59708e-07 
-0.249984 -0.52099 -1.83748 0.0025 0.630684 0.524499 2.07908 0.0079279 122 4 1 5.28326e-07 
-0.246033 -0.514305 -1.81664 0.0025 0.634604 0.529069 2.08424 0.00787893 123 4 1 5.22874e-07 
-0.242105 -0.507708 -1.81554 0.0025 0.638493 0.533615 2.08934 0.00783094 124 4 1 5.36377e-07 
-0.238202 -0.501154 -1.81754 0.0025 0.64237 0.538157 2.09441 0.00778367 125 4 1 5.24502e-07 
-0.234322 -0.49465 -1.81189 0.0025 0.646234 0.542694 2.09944 0.00773713 126 4 1 5.13132e-07 
-0.230465 -0.488223 -1.80822 0.0025 0.650083 0.547225 2.10443 0.00769132 127 4 1 5.29703e-07 
-0.22663 -0.48181 -1.82223 0.0025 0.653934 0.551769 2.10941 0.00764603 128 4 1 5.50143e-07 
-0.222818 -0.475403 -1.83851 0.0025 0.657805 0.556347 2.11439 0.00760104 129 4 1 5.55532e-07 
-0.219029 -0.468967 -1.8546 0.0025 0.6617 0.560964 2.11939 0.0075563 130 4 1 5.57361e-07 
-0.215262 -0.462532 -1.86953 0.0025 0.665619 0.565621 2.1244 0.00751181 131 4 1 5.65729e-07 
-0.211517 -0.456085 -1.8898 0.0025 0.669567 0.570325 2.12943 0.00746751 132 4 1 5.85232e-07 
-0.207795 -0.449595 -1.91877 0.0025 0.673557 0.575089 2.1345 0.00742327 133 4 1 6.08651e-07 
-0.204094 -0.443051 -1.95492 0.0025 0.677601 0.579927 2.13962 0.00737898 134 4 1 6.01786e-07 
-0.200415 -0.436441 -1.97198 0.0025 0.681687 0.584827 2.14477 0.00733475 135 4 1 5.67194e-07 
-0.196759 -0.429869 -1.97256 0.0025 0.685788 0.589759 2.14992 0.00729089 136 4 1 5.78172e-07 
-0.193125 -0.423294 -2.00057 0.0025 0.68991 0.594729 2.15508 0.00724732 137 4 1 5.9819e-07 
-0.189512 -0.416673 -2.02285 0.0025 0.694068 0.599752 2.16026 0.0072039 138 4 1 5.70461e-07 
-0.185921 -0.410083 -2.0232 0.0025 0.69824 0.604804 2.16545 0.00716086 139 4 1 5.49439e-07 
-0.182351 -0.403518 -2.02778 0.0025 0.702412 0.609869 2.17061 0.00711833 140 4 1 5.57314e-07 
-0.178802 -0.396978 -2.04221 0.0025 0.706591 0.614955 2.17577 0.00707623 141 4 1 5.4249e-07 
-0.175274 -0.390458 -2.03806 0.0025 0.710771 0.620053 2.18091 0.00703462 142 4 1 5.3231e-07 
-0.171767 -0.383978 -2.04713 0.0025 0.714946 0.625158 2.18602 0.00699354 143 4 1 5.18125e-07 
-0.168281 -0.377547 -2.03653 0.0025 0.719111 0.630263 2.19111 0.00695303 144 4 1 5.13023e-07 
-0.164814 -0.371155 -2.04623 0.0025 0.723268 0.63537 2.19617 0.00691307 145 4 1 5.19098e-07 
-0.161368 -0.364797 -2.04855 0.0025 0.727425 0.640488 2.20121 0.00687356 146 4 1 5.14556e-07 
-0.157941 -0.35846 -2.05774 0.0025 0.731584 0.64562 2.20623 0.00683449 147 4 1 5.03901e-07 
-0.154533 -0.352161 -2.05487 0.0025 0.735738 0.650758 2.21123 0.00679589 148 4 1 4.91493e-07 
-0.151145 -0.345906 -2.0571 0.0025 0.739884 0.655897 2.21621 0.00675782 149 4 1 4.81207e-07 
-0.147775 -0.339699 -2.05056 0.0025 0.744018 0.661033 2.22115 0.00672027 150 4 1 4.74057e-07 
-0.144425 -0.333543 -2.05168 0.0025 0.74814 0.666167 2.22607 0.00668324 151 4 1 5.0127e-07 
-0.141092 -0.327385 -2.07845 0.0025 0.752275 0.671327 2.23098 0.00664651 152 4 1 4.81617e-07 
-0.137778 -0.321242 -2.06441 0.0025 0.75641 0.676497 2.23588 0.00661017 153 4 1 4.40684e-07 
-0.134482 -0.315208 -2.05106 0.0025 0.760519 0.681648 2.24073 0.00657446 154 4 1 4.62092e-07 
-0.131203 -0.309209 -2.06613 0.0025 0.764622 0.686803 2.24555 0.00653918 155 4 1 4.86234e-07 
-0.127943 -0.303226 -2.08303 0.0025 0.768743 0.691992 2.25039 0.00650412 156 4 1 4.93641e-07 
-0.124699 -0.297252 -2.10431 0.0025 0.772889 0.697222 2.25523 0.00646923 157 4 1 4.79568e-07 
-0.121473 -0.291345 -2.10511 0.0025 0.777049 0.70248 2.26008 0.0064346 158 4 1 4.54068e-07 
-0.118265 -0.28557 -2.09851 0.0025 0.781204 0.707745 2.26491 0.00640038 159 4 1 4.92192e-07 
-0.115073 -0.2799 -2.13808 0.0025 0.785385 0.713056 2.26975 0.0063663 160 4 1 5.47812e-07 
-0.111898 -0.274274 -2.18507 0.0025 0.789636 0.718466 2.27465 0.00633203 161 4 1 5.68322e-07 
-0.108741 -0.268777 -2.23056 0.0025 0.793968 0.72399 2.27963 0.00629749 162 4 1 5.97953e-07 
-0.105601 -0.26345 -2.28862 0.0025 0.798391 0.729643 2.28471 0.0062626 163 4 1 6.1588e-07 
-0.102478 -0.25837 -2.33291 0.0025 0.80291 0.735433 2.28987 0.00622735 164 4 1 6.75861e-07 
-0.0993733 -0.25357 -2.42676 0.0025 0.807558 0.741402 2.29516 0.00619151 165 4 1 7.72772e-07 
-0.0962866 -0.248942 -2.54486 0.0025 0.812389 0.74762 2.30064 0.00615468 166 4 1 8.11946e-07 
-0.0932186 -0.24461 -2.64199 0.0025 0.81741 0.754096 2.30632 0.00611688 167 4 1 8.35815e-07 
-0.0901697 -0.240518 -2.74492 0.0025 0.822603 0.760809 2.31217 0.00607827 168 4 1 8.03123e-07 
-0.0871403 -0.236681 -2.78128 0.0025 0.827917 0.767697 2.31813 0.00603925 169 4 1 7.55744e-07 
-0.0841304 -0.233074 -2.81282 0.0025 0.833295 0.774688 2.32415 0.00600027 170 4 1 7.81557e-07 
-0.0811399 -0.229511 -2.87003 0.0025 0.838747 0.781793 2.33022 0.00596128 171 4 1 7.82723e-07 
-0.078169 -0.226051 -2.89886 0.0025 0.844269 0.78901 2.33634 0.00592228 172 4 1 8.27025e-07 
-0.0752176 -0.222719 -3.00408 0.0025 0.849883 0.796364 2.34254 0.00588316 173 4 1 8.15068e-07 
-0.0722858 -0.219518 -3.05259 0.0025 0.85556 0.803807 2.34879 0.00584412 174 4 1 4.41936e-07 
-0.0693734 -0.216266 -2.79464 0.0025 0.86099 0.810938 2.35476 0.00580727 175 4 1 -1.98754e-07 
-0.0664785 -0.211967 -2.20829 0.0025 0.865701 0.817152 2.35991 0.00577567 176 4 1 -5.37492e-07 
-0.0635977 -0.206255 -1.71139 0.0025 0.869547 0.822263 2.36409 0.00575012 177 4 1 1.43468e-08 
-0.0607283 -0.200161 -1.96552 0.0025 0.873112 0.827002 2.36794 0.00572664 178 4 1 6.15212e-07 
-0.057871 -0.194757 -2.28207 0.0025 0.876884 0.831965 2.37204 0.00570201 179 4 1 -4.56678e-07 
-0.0550263 -0.188641 -1.19827 0.0025 0.879895 0.83592 2.37534 0.0056825 180 4 1 -1.98842e-06 
-0.0521885 -0.179173 0.437586 0.0025 0.880882 0.837289 2.3764 0.00567613 181 4 1 -9.54362e-07 
-0.0493501 -0.168048 -0.0165627 0.0025 0.880997 0.837529 2.37644 0.00567539 182 4 1 1.57754e-06 
-0.0465131 -0.160019 -1.81349 0.0025 0.882574 0.839582 2.37813 0.00566525 183 4 1 1.03244e-06 
-0.0436849 -0.153827 -1.26054 0.0025 0.8849 0.842581 2.38072 0.00565036 184 4 1 -1.93333e-06 
-0.0408627 -0.143549 0.926657 0.0025 0.885328 0.843202 2.38121 0.00564762 185 3 1 -1.39384e-06 
-0.0380373 -0.130928 0.531414 0.0025 0.884528 0.842235 2.38025 0.00565273 186 5 1 1.57599e-06 
-0.03521 -0.122053 -1.32877 0.0025 0.885194 0.843075 2.38094 0.00564848 187 4 1 1.02785e-06 
-0.0323888 -0.114819 -0.744503 0.0025 0.8867 0.845008 2.38264 0.00563888 188 4 1 -1.35208e-06 
-0.0295711 -0.104496 0.573031 0.0025 0.886958 0.845398 2.38293 0.00563725 189 3 1 -6.16192e-07 
-0.0267515 -0.0934518 0.0239969 0.0025 0.886674 0.845063 2.38257 0.00563905 190 5 1 8.7117e-07 
-0.0239321 -0.0838959 -0.632101 0.0025 0.887141 0.84565 2.38308 0.00563609 191 4 1 7.54592e-08 
-0.0211154 -0.0742464 -0.0801917 0.0025 0.887672 0.846344 2.38368 0.00563271 192 4 1 -5.32963e-07 
-0.0182994 -0.064493 0.113171 0.0025 0.887712 0.846412 2.38371 0.00563246 193 3 1 -1.29506e-07 
-0.015483 -0.0545786 0.110085 0.0025 0.887614 0.846304 2.3836 0.00563308 194 5 1 4.05525e-07 
-0.0126663 -0.0446194 -0.481193 0.0025 0.887904 0.846681 2.38392 0.00563124 195 4 1 1.44079e-07 
-0.00985174 -0.0350788 -0.0945632 0.0025 0.888321 0.847213 2.38439 0.0056286 196 3 1 -5.01815e-07 
-0.00703769 -0.025102 0.247601 0.0025 0.888238 0.847128 2.38431 0.00562912 197 4 1 -1.07476e-07 
-0.00422262 -0.0142425 0.0253043 0.0025 0.888054 0.846896 2.3841 0.00563029 198 5 1 2.30999e-07 
-0.0014074 -0.00454733 -0.110672 0.0025 0.888097 0.846937 2.38415 0.00563001 199 3 1 -4.30545e-08 
0.0014074 0.00454733 0.110672 0.0025 0.888097 0.846937 2.38415 0.00563001 200 3 1 -4.30545e-08 
0.00422262 0.0142425 -0.0253043 0.0025 0.888054 0.846896 2.3841 0.00563029 201 5 1 2.30999e-07 
0.00703769 0.025102 -0.247601 0.0025 0.888238 0.847128 2.38431 0.00562912 202 4 1 -1.07476e-07 
0.00985174 0.0350788 0.0945632 0.0025 0.888321 0.847213 2.38439 0.0056286 203 3 1 -5.01815e-07 
0.0126663 0.0446194 0.481193 0.0025 0.887904 0.846681 2.38392 0.00563124 204 4 1 1.44079e-07 
0.015483 0.0545786 -0.110085 0.0025 0.887614 0.846304 2.3836 0.00563308 205 5 1 4.05525e-07 
0.0182994 0.064493 -0.113171 0.0025 0.887712 0.846412 2.38371 0.00563246 206 3 1 -1.29506e-07 
0.0211154 0.0742464 0.0801917 0.0025 0.887672 0.846344 2.38368 0.00563271 207 4 1 -5.32963e-07 
0.0239321 0.0838959 0.632101 0.0025 0.887141 0.84565 2.38308 0.00563609 208 4 1 7.54592e-08 
0.0267515 0.0934518 -0.0239969 0.0025 0.886674 0.845063 2.38257 0.00563905 209 5 1 8.7117e-07 
0.0295711 0.104496 -0.573031 0.0025 0.886958 0.845398 2.38293 0.00563725 210 3 1 -6.16192e-07 
