# Time [s]: 0.459543
# Columns: pos [m], vel [m/s], acc [m/s^2], mass [kg], dens [kg/m^3], pres [Pa], ene [J/kg], sml [m], id, neighbor, alpha, gradh, ...additional?
1.19291 -0.673077 -3.97432e-05 0.0025 0.511061 0.432739 2.15252 0.00978357 0 4 1 -0.000134225 
1.19769 -0.673077 -4.03094e-05 0.0025 0.536919 0.426202 1.95006 0.00931239 1 4 1 0.000179254 
1.20223 -0.673078 -4.89802e-05 0.0025 0.54825 0.430872 1.96852 0.00911993 2 3 1 -1.90585e-05 
1.20681 -0.673078 -6.4178e-05 0.0025 0.545985 0.429208 1.96466 0.00915776 3 5 1 3.48562e-06 
1.21139 -0.673079 -8.732e-05 0.0025 0.546384 0.429364 1.9646 0.00915108 4 4 1 -1.38614e-07 
1.21596 -0.67308 -0.00012097 0.0025 0.546395 0.429335 1.96437 0.00915088 5 4 1 1.43835e-07 
1.22054 -0.673081 -0.000167372 0.0025 0.546419 0.429334 1.96431 0.00915049 6 4 1 -3.36987e-09 
1.22511 -0.673082 -0.000227648 0.0025 0.546433 0.429332 1.96425 0.00915025 7 4 1 8.41474e-09 
1.22969 -0.673084 -0.00030089 0.0025 0.546448 0.429333 1.9642 0.00915 8 4 1 4.9783e-09 
1.23426 -0.673086 -0.000383336 0.0025 0.546461 0.429333 1.96415 0.00914978 9 4 1 5.71387e-09 
1.23884 -0.673089 -0.00046804 0.0025 0.546474 0.429334 1.96411 0.00914957 10 4 1 -1.9971e-09 
1.24341 -0.673091 -0.000545363 0.0025 0.546486 0.429335 1.96407 0.00914936 11 4 1 4.95034e-09 
1.24799 -0.673095 -0.00060438 0.0025 0.546498 0.429337 1.96404 0.00914916 12 4 1 3.02374e-09 
1.25256 -0.673098 -0.000634957 0.0025 0.546509 0.429338 1.964 0.00914898 13 4 1 3.67049e-09 
1.25714 -0.673102 -0.000629946 0.0025 0.546519 0.42934 1.96398 0.00914882 14 4 1 2.12783e-09 
1.26171 -0.673105 -0.000586861 0.0025 0.546528 0.429341 1.96395 0.00914867 15 4 1 -1.66908e-09 
1.26629 -0.673109 -0.000508484 0.0025 0.546537 0.429343 1.96392 0.00914852 16 4 1 4.72803e-09 
1.27086 -0.673112 -0.000402255 0.0025 0.546544 0.429344 1.9639 0.00914839 17 4 1 1.23951e-09 
1.27543 -0.673115 -0.000278652 0.0025 0.546551 0.429345 1.96388 0.00914827 18 4 1 -1.47694e-09 
1.28001 -0.673117 -0.000149082 0.0025 0.546558 0.429345 1.96386 0.00914816 19 4 1 2.40516e-09 
1.28458 -0.673119 -2.3888e-05 0.0025 0.546564 0.429346 1.96384 0.00914807 20 4 1 8.90203e-10 
1.28916 -0.67312 8.90716e-05 0.0025 0.546568 0.429346 1.96382 0.00914799 21 4 1 9.48432e-10 
1.29373 -0.673121 0.000185043 0.0025 0.546573 0.429346 1.96381 0.00914791 22 4 1 8.63306e-10 
1.2983 -0.673122 0.00026228 0.0025 0.546576 0.429345 1.96379 0.00914785 23 4 1 -3.11253e-10 
1.30288 -0.673122 0.000321456 0.0025 0.54658 0.429345 1.96378 0.00914779 24 4 1 1.39268e-09 
1.30745 -0.673122 0.000364869 0.0025 0.546583 0.429344 1.96376 0.00914774 25 4 1 7.00979e-10 
1.31203 -0.673123 0.000395633 0.0025 0.546585 0.429343 1.96375 0.0091477 26 4 1 -3.54969e-10 
1.3166 -0.673123 0.000416973 0.0025 0.546588 0.429342 1.96374 0.00914766 27 4 1 1.26165e-09 
1.32117 -0.673123 0.000431702 0.0025 0.54659 0.429341 1.96372 0.00914763 28 4 1 9.2728e-10 
1.32575 -0.673123 0.000441923 0.0025 0.546592 0.42934 1.96371 0.0091476 29 4 1 -6.92285e-10 
1.33032 -0.673124 0.000449004 0.0025 0.546593 0.429338 1.9637 0.00914757 30 4 1 5.85212e-10 
1.3349 -0.673124 0.000453779 0.0025 0.546595 0.429337 1.96369 0.00914754 31 4 1 2.04538e-09 
1.33947 -0.673125 0.000456842 0.0025 0.546596 0.429336 1.96368 0.00914752 32 4 1 -7.83388e-10 
1.34404 -0.673126 0.00045881 0.0025 0.546597 0.429335 1.96367 0.0091475 33 4 1 -7.59549e-10 
1.34862 -0.673127 0.000460543 0.0025 0.546599 0.429334 1.96366 0.00914748 34 4 1 2.18037e-09 
1.35319 -0.673128 0.000463357 0.0025 0.546599 0.429332 1.96365 0.00914747 35 4 1 -1.5074e-10 
1.35776 -0.67313 0.000469238 0.0025 0.5466 0.429331 1.96364 0.00914745 36 4 1 -8.25871e-10 
1.36234 -0.673132 0.000480809 0.0025 0.546601 0.42933 1.96363 0.00914744 37 4 1 1.4711e-09 
1.36691 -0.673134 0.000500742 0.0025 0.546602 0.429329 1.96363 0.00914743 38 4 1 1.26745e-10 
1.37148 -0.673136 0.000530619 0.0025 0.546602 0.429327 1.96362 0.00914743 39 4 1 -7.1374e-10 
1.37606 -0.673138 0.000569841 0.0025 0.546602 0.429326 1.96361 0.00914742 40 4 1 7.15388e-10 
1.38063 -0.67314 0.000615571 0.0025 0.546602 0.429324 1.9636 0.00914742 41 3 1 4.35207e-10 
1.38521 -0.673143 0.000664254 0.0025 0.546602 0.429323 1.9636 0.00914742 42 4 1 -6.34566e-10 
1.38978 -0.673145 0.000714034 0.0025 0.546602 0.429321 1.96359 0.00914742 43 4 1 -1.40617e-11 
1.39435 -0.673148 0.000766374 0.0025 0.546602 0.429319 1.96358 0.00914743 44 4 1 9.55887e-10 
1.39893 -0.673151 0.000825317 0.0025 0.546601 0.429317 1.96358 0.00914744 45 4 1 -3.94645e-10 
1.4035 -0.673154 0.000894404 0.0025 0.5466 0.429315 1.96357 0.00914746 46 4 1 -7.66667e-10 
1.40807 -0.673157 0.000973224 0.0025 0.546599 0.429312 1.96356 0.00914747 47 4 1 5.24031e-10 
1.41265 -0.673161 0.0010563 0.0025 0.546598 0.42931 1.96355 0.00914749 48 4 1 2.00504e-10 
1.41722 -0.673164 0.00113567 0.0025 0.546596 0.429307 1.96355 0.00914752 49 4 1 -6.75284e-10 
1.4218 -0.673168 0.00120586 0.0025 0.546594 0.429304 1.96354 0.00914755 50 4 1 -3.38079e-10 
1.42637 -0.673172 0.00126813 0.0025 0.546593 0.429301 1.96353 0.00914758 51 4 1 6.18862e-10 
1.43094 -0.673177 0.00133083 0.0025 0.54659 0.429297 1.96352 0.00914762 52 4 1 -1.05584e-10 
1.43552 -0.673182 0.00140557 0.0025 0.546588 0.429294 1.96352 0.00914766 53 4 1 -8.82527e-10 
1.44009 -0.673188 0.00150136 0.0025 0.546585 0.42929 1.96351 0.0091477 54 4 1 -8.61291e-11 
1.44467 -0.673194 0.00162018 0.0025 0.546583 0.429286 1.9635 0.00914775 55 4 1 4.65709e-10 
1.44924 -0.673201 0.00175623 0.0025 0.546579 0.429282 1.96349 0.0091478 56 4 1 -6.03457e-10 
1.45381 -0.673208 0.00189903 0.0025 0.546576 0.429277 1.96348 0.00914786 57 4 1 -1.01163e-09 
1.45839 -0.673216 0.00203913 0.0025 0.546572 0.429272 1.96347 0.00914792 58 4 1 2.12368e-10 
1.46296 -0.673224 0.00217468 0.0025 0.546568 0.429266 1.96346 0.00914799 59 4 1 -6.46212e-11 
1.46753 -0.673234 0.00231566 0.0025 0.546563 0.42926 1.96345 0.00914807 60 4 1 -7.97844e-10 
1.47211 -0.673244 0.0024819 0.0025 0.546558 0.429254 1.96344 0.00914816 61 4 1 -6.83315e-10 
1.47668 -0.673255 0.00269318 0.0025 0.546553 0.429247 1.96343 0.00914825 62 4 1 -1.51957e-10 
1.48126 -0.673267 0.00295559 0.0025 0.546547 0.42924 1.96342 0.00914835 63 4 1 -6.28735e-10 
1.48583 -0.673281 0.00325419 0.0025 0.54654 0.429232 1.96341 0.00914846 64 4 1 -1.15155e-09 
1.49041 -0.673295 0.0035612 0.0025 0.546533 0.429223 1.96339 0.00914859 65 4 1 -7.88702e-10 
1.49498 -0.67331 0.00385824 0.0025 0.546524 0.429213 1.96338 0.00914872 66 4 1 -7.01472e-10 
1.49955 -0.673328 0.00415781 0.0025 0.546515 0.429203 1.96336 0.00914888 67 4 1 -9.80931e-10 
-0.495871 -0.673347 0.00450416 0.0025 0.546505 0.429191 1.96334 0.00914904 68 4 1 -1.18546e-09 
-0.491297 -0.673368 0.00494721 0.0025 0.546495 0.429179 1.96333 0.00914922 69 4 1 -1.14922e-09 
-0.486722 -0.673392 0.00550605 0.0025 0.546483 0.429165 1.96331 0.00914942 70 4 1 -1.62369e-09 
-0.482147 -0.673417 0.00615273 0.0025 0.546469 0.42915 1.96328 0.00914965 71 4 1 -2.04473e-09 
-0.477572 -0.673445 0.00683543 0.0025 0.546454 0.429133 1.96326 0.0091499 72 4 1 -1.91258e-09 
-0.472997 -0.673476 0.00752748 0.0025 0.546437 0.429114 1.96323 0.00915018 73 4 1 -2.00825e-09 
-0.468422 -0.673511 0.00826175 0.0025 0.546419 0.429093 1.9632 0.00915049 74 4 1 -2.36593e-09 
-0.463847 -0.67355 0.00911575 0.0025 0.546398 0.42907 1.96317 0.00915083 75 4 1 -2.68367e-09 
-0.459271 -0.673594 0.0101562 0.0025 0.546375 0.429044 1.96314 0.00915122 76 4 1 -3.09044e-09 
-0.454696 -0.673643 0.0113947 0.0025 0.54635 0.429016 1.9631 0.00915164 77 4 1 -3.58926e-09 
-0.45012 -0.673697 0.0127949 0.0025 0.546321 0.428984 1.96306 0.00915212 78 4 1 -4.07958e-09 
-0.445544 -0.673757 0.0143086 0.0025 0.546289 0.428948 1.96301 0.00915266 79 4 1 -4.36618e-09 
-0.440967 -0.673824 0.0158952 0.0025 0.546253 0.428908 1.96295 0.00915326 80 4 1 -4.47866e-09 
-0.43639 -0.673897 0.0175253 0.0025 0.546214 0.428864 1.9629 0.00915393 81 4 1 -4.53911e-09 
-0.431813 -0.673979 0.0191933 0.0025 0.54617 0.428816 1.96283 0.00915466 82 4 1 -4.51838e-09 
-0.427236 -0.674069 0.0209128 0.0025 0.546123 0.428763 1.96276 0.00915545 83 4 1 -4.40765e-09 
-0.422658 -0.674168 0.0226808 0.0025 0.546071 0.428707 1.96269 0.00915631 84 4 1 -4.2205e-09 
-0.418079 -0.674274 0.0244449 0.0025 0.546017 0.428646 1.96261 0.00915723 85 4 1 -3.80627e-09 
-0.4135 -0.674386 0.026086 0.0025 0.545958 0.428582 1.96252 0.00915821 86 4 1 -2.97984e-09 
-0.408921 -0.674502 0.0273547 0.0025 0.545897 0.428514 1.96243 0.00915923 87 4 1 -1.32908e-09 
-0.404341 -0.674619 0.0278023 0.0025 0.545835 0.428446 1.96234 0.00916028 88 4 1 1.30969e-09 
-0.399761 -0.674738 0.027104 0.0025 0.545774 0.428378 1.96225 0.00916131 89 4 1 4.50858e-09 
-0.39518 -0.674854 0.0255929 0.0025 0.545716 0.428315 1.96217 0.00916228 90 4 1 7.06075e-09 
-0.390599 -0.674962 0.0236427 0.0025 0.545663 0.428257 1.96209 0.00916316 91 4 1 8.86796e-09 
-0.386017 -0.675055 0.0206497 0.0025 0.545619 0.428208 1.96203 0.00916391 92 4 1 1.21869e-08 
-0.381435 -0.675127 0.0157346 0.0025 0.545584 0.428169 1.96197 0.0091645 93 4 1 1.67311e-08 
-0.376852 -0.675176 0.00898821 0.0025 0.545562 0.428146 1.96194 0.00916485 94 4 1 1.45874e-08 
-0.37227 -0.675202 0.00782679 0.0025 0.545554 0.428137 1.96193 0.009165 95 5 1 3.80901e-08 
-0.367687 -0.675179 -0.0195985 0.0025 0.545577 0.428163 1.96196 0.00916461 96 4 1 5.97728e-08 
-0.363105 -0.675051 -0.0315898 0.0025 0.54565 0.428246 1.96207 0.00916338 97 4 1 1.23267e-07 
-0.358524 -0.674778 -0.0989077 0.0025 0.545827 0.428445 1.96232 0.00916042 98 4 1 2.81331e-07 
-0.353945 -0.674051 -0.236296 0.0025 0.546229 0.428891 1.9629 0.00915367 99 4 1 3.98073e-07 
-0.34937 -0.672691 -0.381583 0.0025 0.546938 0.429672 1.96392 0.0091418 100 4 1 4.35526e-07 
-0.344803 -0.670738 -0.513671 0.0025 0.547966 0.430804 1.96539 0.00912465 101 4 1 5.16693e-07 
-0.340246 -0.668144 -0.683424 0.0025 0.549345 0.432326 1.96737 0.00910175 102 4 1 6.83829e-07 
-0.335701 -0.664716 -0.901869 0.0025 0.551155 0.434325 1.96996 0.00907185 103 4 1 8.39771e-07 
-0.331174 -0.660341 -1.13051 0.0025 0.553447 0.436854 1.97323 0.00903428 104 4 1 8.95314e-07 
-0.326667 -0.655083 -1.31739 0.0025 0.556184 0.439877 1.97713 0.00898983 105 4 1 8.33897e-07 
-0.322184 -0.649235 -1.43162 0.0025 0.559251 0.443271 1.98148 0.00894052 106 4 1 7.28658e-07 
-0.317726 -0.643054 -1.49204 0.0025 0.562521 0.4469 1.98611 0.00888855 107 4 1 6.78188e-07 
-0.313295 -0.636695 -1.54209 0.0025 0.565923 0.450689 1.99091 0.00883512 108 4 1 7.0645e-07 
-0.308891 -0.63014 -1.60552 0.0025 0.569452 0.454628 1.99586 0.00878038 109 4 1 7.64736e-07 
-0.304515 -0.623351 -1.67711 0.0025 0.573122 0.458737 2.001 0.00872415 110 4 1 8.29534e-07 
-0.300167 -0.616292 -1.76105 0.0025 0.57695 0.463032 2.00633 0.00866626 111 4 1 8.63966e-07 
-0.295848 -0.60898 -1.82936 0.0025 0.58093 0.467509 2.01186 0.00860688 112 4 1 8.60337e-07 
-0.29156 -0.601486 -1.88494 0.0025 0.585033 0.472135 2.01753 0.00854653 113 4 1 8.20069e-07 
-0.287302 -0.593916 -1.90814 0.0025 0.58921 0.47686 2.02328 0.00848593 114 4 1 7.68658e-07 
-0.283074 -0.58632 -1.92117 0.0025 0.593419 0.481634 2.02905 0.00842575 115 4 1 7.20615e-07 
-0.278876 -0.578767 -1.91558 0.0025 0.597627 0.48642 2.03479 0.00836643 116 4 1 6.7315e-07 
-0.274707 -0.571318 -1.90457 0.0025 0.601806 0.491189 2.04047 0.00830832 117 4 1 6.28184e-07 
-0.270567 -0.563997 -1.88062 0.0025 0.60594 0.495918 2.04607 0.00825164 118 4 1 5.96719e-07 
-0.266455 -0.556813 -1.86258 0.0025 0.610021 0.500601 2.05157 0.00819643 119 4 1 5.96334e-07 
-0.262371 -0.549733 -1.85681 0.0025 0.614064 0.505252 2.05699 0.00814247 120 4 1 5.8638e-07 
-0.258313 -0.542733 -1.8456 0.0025 0.618074 0.509877 2.06236 0.00808964 121 4 1 5.47559e-07 
-0.254281 -0.535859 -1.82007 0.0025 0.622038 0.514461 2.06764 0.00803809 122 4 1 5.35989e-07 
-0.250275 -0.529105 -1.81317 0.0025 0.625959 0.519007 2.07284 0.00798774 123 4 1 5.45383e-07 
-0.246293 -0.522407 -1.81056 0.0025 0.629856 0.523536 2.07799 0.00793832 124 4 1 5.214e-07 
-0.242336 -0.515804 -1.79304 0.0025 0.633723 0.52804 2.08308 0.00788989 125 4 1 5.03406e-07 
-0.238403 -0.509296 -1.78402 0.0025 0.637555 0.532517 2.08811 0.00784246 126 4 1 5.17149e-07 
-0.234494 -0.502847 -1.789 0.0025 0.641372 0.536985 2.0931 0.00779579 127 4 1 5.12675e-07 
-0.230607 -0.496425 -1.78373 0.0025 0.645177 0.541451 2.09806 0.00774981 128 4 1 5.00259e-07 
-0.226744 -0.49008 -1.78195 0.0025 0.648969 0.545911 2.10299 0.00770453 129 4 1 5.05094e-07 
-0.222903 -0.48377 -1.78544 0.0025 0.652755 0.550377 2.10788 0.00765984 130 4 1 5.23141e-07 
-0.219084 -0.477468 -1.80236 0.0025 0.656554 0.554866 2.11278 0.00761552 131 4 1 5.39931e-07 
-0.215287 -0.471149 -1.82033 0.0025 0.660377 0.559394 2.11769 0.00757143 132 4 1 5.375e-07 
-0.211513 -0.464814 -1.83226 0.0025 0.664223 0.563961 2.12262 0.00752759 133 4 1 5.43893e-07 
-0.20776 -0.458478 -1.8524 0.0025 0.668096 0.56857 2.12756 0.00748396 134 4 1 5.54012e-07 
-0.204028 -0.452111 -1.87049 0.0025 0.672 0.573228 2.13252 0.00744047 135 4 1 5.76456e-07 
-0.200319 -0.445715 -1.90665 0.0025 0.67595 0.577951 2.13753 0.00739699 136 4 1 5.95898e-07 
-0.196631 -0.43924 -1.93773 0.0025 0.679954 0.582748 2.14258 0.00735344 137 4 1 5.61984e-07 
-0.192966 -0.432751 -1.93765 0.0025 0.683983 0.587587 2.14765 0.00731012 138 4 1 5.46197e-07 
-0.189321 -0.426307 -1.95209 0.0025 0.688024 0.592453 2.15272 0.00726719 139 4 1 5.67306e-07 
-0.185698 -0.419822 -1.97557 0.0025 0.692091 0.597362 2.1578 0.00722448 140 4 1 5.67604e-07 
-0.182097 -0.413325 -1.99106 0.0025 0.696185 0.602314 2.1629 0.007182 141 4 1 5.37041e-07 
-0.178516 -0.406859 -1.98557 0.0025 0.700283 0.607283 2.16798 0.00713997 142 4 1 5.33314e-07 
-0.174957 -0.400417 -2.00126 0.0025 0.704384 0.612267 2.17305 0.0070984 143 4 1 5.31583e-07 
-0.171418 -0.394005 -2.00085 0.0025 0.708489 0.617268 2.17811 0.00705727 144 4 1 5.21752e-07 
-0.167899 -0.387614 -2.0107 0.0025 0.712594 0.622281 2.18314 0.00701662 145 4 1 5.10054e-07 
-0.164401 -0.381269 -2.00507 0.0025 0.716694 0.627299 2.18816 0.00697648 146 4 1 4.97456e-07 
-0.160923 -0.37497 -2.00789 0.0025 0.720784 0.632316 2.19315 0.00693689 147 4 1 4.95694e-07 
-0.157464 -0.36871 -2.00732 0.0025 0.724868 0.637337 2.19811 0.00689781 148 4 1 4.97998e-07 
-0.154025 -0.362473 -2.01746 0.0025 0.728951 0.642369 2.20305 0.00685917 149 4 1 4.97601e-07 
-0.150605 -0.356263 -2.02105 0.0025 0.733037 0.647415 2.20798 0.00682094 150 4 1 4.83554e-07 
-0.147204 -0.350097 -2.02119 0.0025 0.737119 0.652468 2.21289 0.00678317 151 4 1 4.8202e-07 
-0.143822 -0.343971 -2.02779 0.0025 0.741198 0.657528 2.21778 0.00674584 152 4 1 4.6576e-07 
-0.140458 -0.337902 -2.01645 0.0025 0.745267 0.662588 2.22264 0.006709 153 4 1 4.75149e-07 
-0.137113 -0.331906 -2.03483 0.0025 0.749338 0.667662 2.22749 0.00667256 154 4 1 5.16443e-07 
-0.133785 -0.32591 -2.06782 0.0025 0.753443 0.672787 2.23236 0.0066362 155 4 1 4.98842e-07 
-0.130476 -0.319998 -2.06533 0.0025 0.75757 0.677951 2.23725 0.00660005 156 4 1 4.84472e-07 
-0.127185 -0.314213 -2.07716 0.0025 0.761706 0.68314 2.24212 0.00656421 157 4 1 5.2505e-07 
-0.123912 -0.308539 -2.11275 0.0025 0.765884 0.688393 2.24703 0.00652841 158 4 1 5.79783e-07 
-0.120657 -0.302973 -2.1703 0.0025 0.770142 0.69376 2.25202 0.00649231 159 4 1 6.37428e-07 
-0.11742 -0.297548 -2.24496 0.0025 0.774515 0.699281 2.25713 0.00645565 160 4 1 6.60933e-07 
-0.114201 -0.292325 -2.30072 0.0025 0.779006 0.704964 2.26235 0.00641843 161 4 1 6.74164e-07 
-0.111001 -0.287414 -2.35975 0.0025 0.78361 0.710805 2.26769 0.00638072 162 4 1 7.57325e-07 
-0.10782 -0.282784 -2.4721 0.0025 0.78837 0.71686 2.27319 0.0063422 163 4 1 8.43555e-07 
-0.104659 -0.278409 -2.58768 0.0025 0.793329 0.72318 2.2789 0.00630255 164 4 1 8.64892e-07 
-0.101518 -0.274319 -2.68112 0.0025 0.79847 0.729747 2.28479 0.00626198 165 4 1 8.53071e-07 
-0.098397 -0.27042 -2.75094 0.0025 0.80375 0.73651 2.29083 0.00622084 166 4 1 7.77173e-07 
-0.0952969 -0.266739 -2.74607 0.0025 0.809095 0.743375 2.29691 0.00617974 167 4 1 7.71798e-07 
-0.0922172 -0.263179 -2.79708 0.0025 0.814489 0.750324 2.30302 0.00613882 168 4 1 8.56414e-07 
-0.089158 -0.259709 -2.88193 0.0025 0.819991 0.757431 2.30923 0.00609763 169 4 1 9.15124e-07 
-0.0861195 -0.256487 -3.00078 0.0025 0.825631 0.76473 2.31557 0.00605598 170 4 1 8.36399e-07 
-0.0831019 -0.253406 -3.02468 0.0025 0.831308 0.772083 2.32194 0.00601461 171 4 1 2.50088e-07 
-0.0801048 -0.249845 -2.57058 0.0025 0.836569 0.778913 2.32782 0.00597679 172 4 1 -4.67109e-07 
-0.0771251 -0.244958 -1.91424 0.0025 0.840931 0.784617 2.33266 0.00594579 173 4 1 -3.22405e-07 
-0.074159 -0.238959 -1.81358 0.0025 0.844656 0.789513 2.33677 0.00591957 174 4 1 4.55911e-07 
-0.0712055 -0.233414 -2.22501 0.0025 0.848452 0.794472 2.34095 0.00589308 175 4 1 3.12677e-07 
-0.0682659 -0.22824 -1.96414 0.0025 0.852135 0.799247 2.34505 0.00586762 176 4 1 -1.35621e-06 
-0.0653379 -0.22059 -0.36041 0.0025 0.854314 0.802108 2.34748 0.00585265 177 4 1 -1.83788e-06 
-0.0624132 -0.209711 0.433021 0.0025 0.854728 0.802743 2.34788 0.00584981 178 4 1 3.96448e-07 
-0.059488 -0.199788 -1.04728 0.0025 0.855553 0.803857 2.34873 0.00584417 179 4 1 1.82675e-06 
-0.056569 -0.193358 -1.91479 0.0025 0.857893 0.806836 2.35134 0.00582824 180 4 1 -6.73091e-07 
-0.0536598 -0.185613 -0.0240707 0.0025 0.859452 0.808855 2.35312 0.00581766 181 3 1 -2.23343e-06 
-0.0507514 -0.173295 1.0935 0.0025 0.858935 0.808285 2.35251 0.00582116 182 4 1 3.41856e-07 
-0.0478386 -0.161967 -0.661199 0.0025 0.858819 0.808163 2.3523 0.00582195 183 5 1 1.93577e-06 
-0.0449294 -0.154616 -1.43702 0.0025 0.860383 0.810125 2.35406 0.00581136 184 4 1 -5.11449e-07 
-0.0420272 -0.146018 0.135942 0.0025 0.861413 0.81147 2.35525 0.00580442 185 3 1 -1.48437e-06 
-0.039125 -0.134515 0.527095 0.0025 0.861109 0.811143 2.35487 0.00580647 186 5 1 4.09579e-07 
-0.0362208 -0.12435 -0.49491 0.0025 0.861177 0.811228 2.35491 0.00580601 187 4 1 7.53366e-07 
-0.033319 -0.115252 -0.449367 0.0025 0.861882 0.812119 2.35572 0.00580126 188 4 1 -3.87982e-07 
-0.0304195 -0.105085 0.0355377 0.0025 0.862248 0.812611 2.35613 0.0057988 189 4 1 -3.47675e-07 
-0.0275202 -0.0948415 0.00885907 0.0025 0.862299 0.812692 2.35617 0.00579845 190 4 1 1.213e-07 
-0.0246211 -0.0850663 -0.128704 0.0025 0.862444 0.812887 2.35632 0.00579748 191 4 1 2.40158e-07 
-0.0217227 -0.0753054 -0.341018 0.0025 0.862812 0.813358 2.35673 0.00579501 192 4 1 -1.12002e-07 
-0.0188261 -0.0657526 0.0456246 0.0025 0.863049 0.813665 2.35701 0.00579341 193 3 1 -3.86169e-07 
-0.0159293 -0.0549291 0.189372 0.0025 0.862924 0.813528 2.35687 0.00579425 194 5 1 1.67988e-07 
-0.0130318 -0.044454 -0.222547 0.0025 0.862974 0.813594 2.35691 0.00579392 195 4 1 2.8538e-07 
-0.0101354 -0.0348438 -0.192618 0.0025 0.863274 0.813966 2.35726 0.00579191 196 4 1 -2.95169e-07 
-0.00723991 -0.0254914 0.196425 0.0025 0.863294 0.814008 2.35729 0.00579177 197 3 1 -6.12936e-08 
-0.00434362 -0.0152184 -0.107023 0.0025 0.863247 0.813959 2.35724 0.00579208 198 5 1 1.404e-07 
-0.00144782 -0.00492221 -0.033978 0.0025 0.863343 0.814073 2.35735 0.00579144 199 3 1 -9.61502e-08 
0.00144782 0.00492221 0.033978 0.0025 0.863343 0.814073 2.35735 0.00579144 200 3 1 -9.61502e-08 
0.00434362 0.0152184 0.107023 0.0025 0.863247 0.813959 2.35724 0.00579208 201 5 1 1.404e-07 
0.00723991 0.0254914 -0.196425 0.0025 0.863294 0.814008 2.35729 0.00579177 202 3 1 -6.12936e-08 
0.0101354 0.0348438 0.192618 0.0025 0.863274 0.813966 2.35726 0.00579191 203 4 1 -2.95169e-07 
0.0130318 0.044454 0.222547 0.0025 0.862974 0.813594 2.35691 0.00579392 204 4 1 2.8538e-07 
0.0159293 0.0549291 -0.189372 0.0025 0.862924 0.813528 2.35687 0.00579425 205 5 1 1.67988e-07 
0.0188261 0.0657526 -0.0456246 0.0025 0.863049 0.813665 2.35701 0.00579341 206 3 1 -3.86169e-07 
0.0217227 0.0753054 0.341018 0.0025 0.862812 0.813358 2.35673 0.00579501 207 4 1 -1.12002e-07 
0.0246211 0.0850663 0.128704 0.0025 0.862444 0.812887 2.35632 0.00579748 208 4 1 2.40158e-07 
0.0275202 0.0948415 -0.00885907 0.0025 0.862299 0.812692 2.35617 0.00579845 209 4 1 1.213e-07 
0.0304195 0.105085 -0.0355377 0.0025 0.862248 0.812611 2.35613 0.0057988 210 4 1 -3.47675e-07 
