# Time [s]: 0.452876
# Columns: pos [m], vel [m/s], acc [m/s^2], mass [kg], dens [kg/m^3], pres [Pa], ene [J/kg], sml [m], id, neighbor, alpha, gradh, ...additional?
1.1974 -0.673076 -2.13584e-05 0.0025 0.51106 0.432738 2.15252 0.00978358 0 4 1 -0.000134225 
1.20218 -0.673077 -2.31053e-05 0.0025 0.536919 0.426201 1.95006 0.0093124 1 4 1 0.000179254 
1.20672 -0.673077 -2.60738e-05 0.0025 0.548249 0.430872 1.96852 0.00911994 2 3 1 -1.90585e-05 
1.2113 -0.673078 -3.17074e-05 0.0025 0.545985 0.429208 1.96466 0.00915777 3 5 1 3.48561e-06 
1.21588 -0.673079 -4.17971e-05 0.0025 0.546383 0.429363 1.9646 0.00915109 4 4 1 -1.3865e-07 
1.22045 -0.673079 -5.85659e-05 0.0025 0.546395 0.429334 1.96437 0.0091509 5 4 1 1.43789e-07 
1.22503 -0.67308 -8.45608e-05 0.0025 0.546418 0.429333 1.96431 0.0091505 6 4 1 -3.42432e-09 
1.2296 -0.673081 -0.000122406 0.0025 0.546432 0.429331 1.96425 0.00915027 7 4 1 8.35591e-09 
1.23418 -0.673083 -0.000174206 0.0025 0.546447 0.429331 1.9642 0.00915002 8 4 1 4.9234e-09 
1.23875 -0.673084 -0.000240613 0.0025 0.54646 0.429332 1.96415 0.0091498 9 4 1 5.67435e-09 
1.24333 -0.673086 -0.000319758 0.0025 0.546472 0.429332 1.96411 0.0091496 10 4 1 -2.00848e-09 
1.2479 -0.673088 -0.000406449 0.0025 0.546484 0.429333 1.96407 0.00914939 11 4 1 4.9779e-09 
1.25248 -0.673091 -0.000492062 0.0025 0.546496 0.429334 1.96403 0.0091492 12 4 1 3.09546e-09 
1.25705 -0.673094 -0.000565469 0.0025 0.546506 0.429335 1.964 0.00914903 13 4 1 3.78326e-09 
1.26163 -0.673098 -0.000614944 0.0025 0.546516 0.429337 1.96397 0.00914887 14 4 1 2.26972e-09 
1.2662 -0.673101 -0.000630631 0.0025 0.546525 0.429338 1.96395 0.00914872 15 4 1 -1.51676e-09 
1.27077 -0.673105 -0.000606839 0.0025 0.546534 0.42934 1.96392 0.00914857 16 4 1 4.86943e-09 
1.27535 -0.673109 -0.000543441 0.0025 0.546542 0.429341 1.9639 0.00914843 17 4 1 1.35098e-09 
1.27992 -0.673112 -0.000445932 0.0025 0.546549 0.429342 1.96388 0.00914831 18 4 1 -1.40803e-09 
1.2845 -0.673115 -0.00032416 0.0025 0.546556 0.429343 1.96386 0.0091482 19 4 1 2.42726e-09 
1.28907 -0.673118 -0.000190164 0.0025 0.546562 0.429344 1.96384 0.00914809 20 4 1 8.69411e-10 
1.29364 -0.67312 -5.58084e-05 0.0025 0.546567 0.429345 1.96382 0.00914801 21 4 1 8.9453e-10 
1.29822 -0.673122 6.91476e-05 0.0025 0.546572 0.429345 1.96381 0.00914793 22 4 1 7.88806e-10 
1.30279 -0.673123 0.000178145 0.0025 0.546576 0.429345 1.96379 0.00914786 23 4 1 -3.94072e-10 
1.30737 -0.673124 0.000268029 0.0025 0.546579 0.429344 1.96378 0.0091478 24 4 1 1.31155e-09 
1.31194 -0.673125 0.000338574 0.0025 0.546583 0.429343 1.96376 0.00914775 25 4 1 6.2834e-10 
1.31651 -0.673125 0.000391659 0.0025 0.546585 0.429342 1.96375 0.0091477 26 4 1 -4.1563e-10 
1.32109 -0.673126 0.000430383 0.0025 0.546588 0.429341 1.96374 0.00914766 27 4 1 1.21356e-09 
1.32566 -0.673126 0.00045826 0.0025 0.54659 0.42934 1.96372 0.00914763 28 4 1 8.90189e-10 
1.33024 -0.673127 0.000478568 0.0025 0.546591 0.429339 1.96371 0.0091476 29 4 1 -7.21183e-10 
1.33481 -0.673127 0.000493892 0.0025 0.546593 0.429338 1.9637 0.00914757 30 4 1 5.61558e-10 
1.33938 -0.673128 0.000505949 0.0025 0.546594 0.429337 1.96369 0.00914755 31 4 1 2.02477e-09 
1.34396 -0.673128 0.000515713 0.0025 0.546595 0.429335 1.96368 0.00914753 32 4 1 -8.02008e-10 
1.34853 -0.673129 0.000523743 0.0025 0.546597 0.429334 1.96367 0.00914751 33 4 1 -7.76115e-10 
1.3531 -0.67313 0.000530531 0.0025 0.546598 0.429333 1.96366 0.0091475 34 4 1 2.1668e-09 
1.35768 -0.673132 0.000536729 0.0025 0.546598 0.429331 1.96365 0.00914749 35 4 1 -1.59541e-10 
1.36225 -0.673133 0.000543318 0.0025 0.546599 0.42933 1.96364 0.00914748 36 4 1 -8.27445e-10 
1.36683 -0.673135 0.000551868 0.0025 0.5466 0.429328 1.96363 0.00914746 37 4 1 1.47892e-09 
1.3714 -0.673137 0.000564808 0.0025 0.5466 0.429327 1.96363 0.00914746 38 4 1 1.43762e-10 
1.37597 -0.673139 0.000585318 0.0025 0.5466 0.429325 1.96362 0.00914746 39 4 1 -6.92084e-10 
1.38055 -0.673142 0.000616385 0.0025 0.5466 0.429324 1.96361 0.00914745 40 3 1 7.33033e-10 
1.38512 -0.673144 0.000659212 0.0025 0.5466 0.429322 1.9636 0.00914745 41 4 1 4.39998e-10 
1.38969 -0.673147 0.00071203 0.0025 0.5466 0.42932 1.96359 0.00914746 42 4 1 -6.45774e-10 
1.39427 -0.67315 0.000770633 0.0025 0.5466 0.429318 1.96359 0.00914746 43 4 1 -3.52828e-11 
1.39884 -0.673153 0.000830941 0.0025 0.546599 0.429316 1.96358 0.00914747 44 4 1 9.3687e-10 
1.40342 -0.673156 0.00089214 0.0025 0.546598 0.429314 1.96357 0.00914749 45 4 1 -4.01811e-10 
1.40799 -0.67316 0.000957895 0.0025 0.546597 0.429312 1.96357 0.0091475 46 4 1 -7.63801e-10 
1.41256 -0.673164 0.00103411 0.0025 0.546596 0.429309 1.96356 0.00914752 47 4 1 5.22036e-10 
1.41714 -0.673168 0.00112428 0.0025 0.546595 0.429306 1.96355 0.00914755 48 4 1 1.74247e-10 
1.42171 -0.673172 0.00122567 0.0025 0.546593 0.429303 1.96354 0.00914758 49 4 1 -7.35832e-10 
1.42628 -0.673177 0.00132964 0.0025 0.546591 0.4293 1.96354 0.00914761 50 4 1 -4.24123e-10 
1.43086 -0.673181 0.00142659 0.0025 0.546589 0.429297 1.96353 0.00914764 51 4 1 5.32287e-10 
1.43543 -0.673187 0.0015126 0.0025 0.546586 0.429293 1.96352 0.00914769 52 4 1 -1.65675e-10 
1.44001 -0.673192 0.00159318 0.0025 0.546583 0.429289 1.96351 0.00914774 53 4 1 -9.0365e-10 
1.44458 -0.673199 0.00168134 0.0025 0.54658 0.429285 1.9635 0.00914778 54 4 1 -7.84781e-11 
1.44915 -0.673206 0.001791 0.0025 0.546577 0.42928 1.96349 0.00914784 55 4 1 4.74201e-10 
1.45373 -0.673213 0.0019301 0.0025 0.546574 0.429275 1.96348 0.0091479 56 4 1 -6.25799e-10 
1.4583 -0.673221 0.00209711 0.0025 0.54657 0.42927 1.96347 0.00914797 57 4 1 -1.08493e-09 
1.46288 -0.67323 0.0022824 0.0025 0.546565 0.429264 1.96346 0.00914804 58 4 1 9.03481e-11 
1.46745 -0.67324 0.00247322 0.0025 0.54656 0.429258 1.96345 0.00914812 59 4 1 -2.07934e-10 
1.47202 -0.67325 0.0026609 0.0025 0.546555 0.429251 1.96344 0.00914821 60 4 1 -9.19304e-10 
1.4766 -0.673262 0.00284824 0.0025 0.546549 0.429244 1.96343 0.00914831 61 4 1 -7.47953e-10 
1.48117 -0.673274 0.00305324 0.0025 0.546543 0.429236 1.96342 0.00914841 62 4 1 -1.62783e-10 
1.48575 -0.673288 0.00330375 0.0025 0.546536 0.429228 1.9634 0.00914853 63 4 1 -6.40462e-10 
1.49032 -0.673303 0.0036222 0.0025 0.546528 0.429219 1.96339 0.00914866 64 4 1 -1.24699e-09 
1.49489 -0.67332 0.00400844 0.0025 0.54652 0.429209 1.96337 0.0091488 65 4 1 -1.02129e-09 
1.49947 -0.673338 0.00443549 0.0025 0.54651 0.429198 1.96336 0.00914896 66 4 1 -1.04233e-09 
-0.495956 -0.673358 0.00486772 0.0025 0.5465 0.429186 1.96334 0.00914913 67 4 1 -1.32135e-09 
-0.491382 -0.673379 0.00529357 0.0025 0.546488 0.429172 1.96332 0.00914933 68 4 1 -1.41218e-09 
-0.486807 -0.673404 0.00574794 0.0025 0.546476 0.429158 1.9633 0.00914954 69 4 1 -1.24533e-09 
-0.482232 -0.673431 0.00630003 0.0025 0.546461 0.429142 1.96328 0.00914978 70 4 1 -1.70879e-09 
-0.477657 -0.673461 0.00700814 0.0025 0.546446 0.429124 1.96325 0.00915004 71 4 1 -2.30162e-09 
-0.473082 -0.673494 0.00787463 0.0025 0.546429 0.429105 1.96322 0.00915033 72 4 1 -2.44119e-09 
-0.468507 -0.673531 0.00884194 0.0025 0.546409 0.429083 1.96319 0.00915065 73 4 1 -2.72514e-09 
-0.463931 -0.673571 0.00984211 0.0025 0.546387 0.429058 1.96316 0.00915102 74 4 1 -3.05235e-09 
-0.459356 -0.673617 0.0108648 0.0025 0.546363 0.42903 1.96312 0.00915143 75 4 1 -3.163e-09 
-0.45478 -0.673668 0.0119823 0.0025 0.546335 0.429 1.96308 0.00915189 76 4 1 -3.37906e-09 
-0.450204 -0.673725 0.0132973 0.0025 0.546305 0.428966 1.96304 0.00915239 77 4 1 -3.86291e-09 
-0.445628 -0.673789 0.0148548 0.0025 0.546272 0.428929 1.96299 0.00915295 78 4 1 -4.48763e-09 
-0.441051 -0.67386 0.0166091 0.0025 0.546235 0.428888 1.96293 0.00915358 79 4 1 -4.90734e-09 
-0.436474 -0.673938 0.0184731 0.0025 0.546193 0.428842 1.96287 0.00915427 80 4 1 -5.04067e-09 
-0.431897 -0.674024 0.0203646 0.0025 0.546147 0.428791 1.9628 0.00915504 81 4 1 -4.95366e-09 
-0.427319 -0.674117 0.0221944 0.0025 0.546097 0.428736 1.96273 0.00915588 82 4 1 -4.5502e-09 
-0.422741 -0.674219 0.0238729 0.0025 0.546043 0.428676 1.96265 0.00915678 83 4 1 -3.81208e-09 
-0.418162 -0.674328 0.0253428 0.0025 0.545986 0.428613 1.96256 0.00915775 84 4 1 -2.86337e-09 
-0.413583 -0.674444 0.0265547 0.0025 0.545926 0.428547 1.96248 0.00915875 85 4 1 -1.68446e-09 
-0.409003 -0.674564 0.0274082 0.0025 0.545864 0.428479 1.96239 0.00915978 86 4 1 -1.87669e-10 
-0.404423 -0.674686 0.0277341 0.0025 0.545803 0.42841 1.9623 0.00916082 87 4 1 1.79875e-09 
-0.399843 -0.674805 0.0273814 0.0025 0.545742 0.428344 1.96221 0.00916184 88 4 1 4.18548e-09 
-0.395261 -0.674917 0.0260635 0.0025 0.545685 0.428281 1.96212 0.0091628 89 4 1 7.51884e-09 
-0.39068 -0.675016 0.0229784 0.0025 0.545634 0.428224 1.96205 0.00916366 90 4 1 1.23171e-08 
-0.386098 -0.675101 0.0178765 0.0025 0.545592 0.428179 1.96199 0.00916435 91 4 1 1.63655e-08 
-0.381515 -0.675167 0.0123525 0.0025 0.545565 0.428148 1.96195 0.00916482 92 4 1 1.56826e-08 
-0.376933 -0.675205 0.00816998 0.0025 0.54555 0.428133 1.96193 0.00916506 93 5 1 2.21687e-08 
-0.37235 -0.675215 -0.00284169 0.0025 0.545554 0.428138 1.96193 0.00916499 94 4 1 4.75474e-08 
-0.367768 -0.675139 -0.0252411 0.0025 0.545598 0.428187 1.96199 0.00916426 95 4 1 8.22775e-08 
-0.363186 -0.674969 -0.0538536 0.0025 0.545712 0.428316 1.96216 0.00916235 96 4 1 2.06029e-07 
-0.358606 -0.674493 -0.170394 0.0025 0.545993 0.428631 1.96256 0.00915762 97 4 1 3.60388e-07 
-0.354029 -0.673421 -0.31644 0.0025 0.546558 0.429254 1.96337 0.00914816 98 4 1 4.16348e-07 
-0.349457 -0.671735 -0.449269 0.0025 0.547437 0.430221 1.96463 0.00913348 99 4 1 4.70676e-07 
-0.344895 -0.669461 -0.599367 0.0025 0.548647 0.431556 1.96637 0.00911334 100 4 1 6.18588e-07 
-0.340344 -0.666421 -0.806795 0.0025 0.550261 0.433339 1.96868 0.00908659 101 4 1 8.00881e-07 
-0.335808 -0.662427 -1.04357 0.0025 0.552358 0.435653 1.97168 0.0090521 102 4 1 9.05676e-07 
-0.331292 -0.657479 -1.25856 0.0025 0.554938 0.438501 1.97536 0.00901001 103 4 1 8.82928e-07 
-0.326798 -0.651788 -1.403 0.0025 0.557908 0.441783 1.97958 0.00896205 104 4 1 7.81005e-07 
-0.32233 -0.645677 -1.48248 0.0025 0.561132 0.445357 1.98415 0.00891057 105 4 1 7.02437e-07 
-0.317888 -0.639323 -1.53321 0.0025 0.564512 0.449116 1.98892 0.00885721 106 4 1 7.0922e-07 
-0.313473 -0.632785 -1.59712 0.0025 0.568023 0.453033 1.99386 0.00880246 107 4 1 7.69322e-07 
-0.309085 -0.626006 -1.67117 0.0025 0.571681 0.457123 1.99898 0.00874614 108 4 1 8.34568e-07 
-0.304726 -0.61896 -1.75467 0.0025 0.575501 0.461406 2.00432 0.00868808 109 4 1 8.86069e-07 
-0.300397 -0.611631 -1.83615 0.0025 0.579487 0.465884 2.00986 0.00862833 110 4 1 8.87603e-07 
-0.296098 -0.604088 -1.89246 0.0025 0.583609 0.470529 2.01557 0.00856738 111 4 1 8.53972e-07 
-0.291829 -0.596413 -1.92891 0.0025 0.587822 0.475289 2.02137 0.00850597 112 4 1 8.07818e-07 
-0.287592 -0.588711 -1.94376 0.0025 0.592082 0.480116 2.02722 0.00844478 113 4 1 7.60009e-07 
-0.283385 -0.581023 -1.94798 0.0025 0.596352 0.484969 2.03306 0.00838431 114 4 1 7.08668e-07 
-0.279207 -0.573444 -1.93548 0.0025 0.600603 0.489815 2.03884 0.00832497 115 4 1 6.56999e-07 
-0.27506 -0.565987 -1.91512 0.0025 0.60481 0.494624 2.04454 0.00826706 116 4 1 6.1866e-07 
-0.27094 -0.558669 -1.89125 0.0025 0.608963 0.499386 2.05014 0.00821068 117 4 1 6.12793e-07 
-0.266849 -0.55146 -1.88549 0.0025 0.613072 0.50411 2.05566 0.00815565 118 4 1 6.08761e-07 
-0.262784 -0.544344 -1.87554 0.0025 0.617148 0.508808 2.06112 0.00810178 119 4 1 5.69467e-07 
-0.258747 -0.537347 -1.85031 0.0025 0.621178 0.513465 2.06649 0.00804922 120 4 1 5.49039e-07 
-0.254735 -0.530481 -1.83776 0.0025 0.625161 0.518081 2.07178 0.00799794 121 4 1 5.60439e-07 
-0.250749 -0.52368 -1.83792 0.0025 0.629116 0.522675 2.07702 0.00794766 122 4 1 5.38597e-07 
-0.246787 -0.516964 -1.81826 0.0025 0.63304 0.527244 2.08219 0.00789839 123 4 1 5.16752e-07 
-0.24285 -0.51036 -1.80882 0.0025 0.636928 0.531784 2.08729 0.00785018 124 4 1 5.2915e-07 
-0.238937 -0.503809 -1.8116 0.0025 0.640797 0.536312 2.09235 0.00780278 125 4 1 5.30673e-07 
-0.235048 -0.497302 -1.81126 0.0025 0.644657 0.54084 2.09739 0.00775607 126 4 1 5.10822e-07 
-0.231181 -0.490863 -1.80107 0.0025 0.648499 0.545359 2.10238 0.00771011 127 4 1 5.18117e-07 
-0.227337 -0.48447 -1.812 0.0025 0.652336 0.549882 2.10734 0.00766476 128 4 1 5.37996e-07 
-0.223516 -0.478082 -1.82327 0.0025 0.656185 0.55443 2.11231 0.0076198 129 4 1 5.50909e-07 
-0.219717 -0.471673 -1.84419 0.0025 0.660057 0.559016 2.11728 0.0075751 130 4 1 5.56435e-07 
-0.215941 -0.46526 -1.85783 0.0025 0.663956 0.563643 2.12228 0.00753062 131 4 1 5.54807e-07 
-0.212187 -0.458839 -1.87364 0.0025 0.667878 0.568311 2.12728 0.00748639 132 4 1 5.72906e-07 
-0.208455 -0.452389 -1.90048 0.0025 0.671837 0.573033 2.13232 0.00744228 133 4 1 5.93336e-07 
-0.204744 -0.445894 -1.93038 0.0025 0.675843 0.577822 2.13739 0.00739817 134 4 1 6.08087e-07 
-0.201056 -0.439322 -1.96489 0.0025 0.6799 0.582684 2.14252 0.00735402 135 4 1 5.78993e-07 
-0.19739 -0.432749 -1.96361 0.0025 0.683985 0.58759 2.14766 0.0073101 136 4 1 5.60677e-07 
-0.193746 -0.426206 -1.97904 0.0025 0.688082 0.592523 2.15279 0.00726658 137 4 1 5.93892e-07 
-0.190124 -0.419627 -2.01209 0.0025 0.692213 0.597509 2.15795 0.00722321 138 4 1 5.80088e-07 
-0.186523 -0.413038 -2.0148 0.0025 0.696368 0.602536 2.16313 0.00718011 139 4 1 5.5052e-07 
-0.182944 -0.40648 -2.01952 0.0025 0.700526 0.607578 2.16828 0.00713749 140 4 1 5.51969e-07 
-0.179385 -0.399957 -2.02908 0.0025 0.704689 0.612639 2.17343 0.00709533 141 4 1 5.44191e-07 
-0.175848 -0.393437 -2.03249 0.0025 0.708854 0.617714 2.17856 0.00705364 142 4 1 5.36396e-07 
-0.172332 -0.386968 -2.03901 0.0025 0.713019 0.622801 2.18367 0.00701243 143 4 1 5.19299e-07 
-0.168836 -0.380524 -2.03204 0.0025 0.717176 0.627889 2.18875 0.00697179 144 4 1 5.11318e-07 
-0.16536 -0.374143 -2.03686 0.0025 0.721322 0.632978 2.1938 0.00693172 145 4 1 5.13739e-07 
-0.161904 -0.367788 -2.03901 0.0025 0.725466 0.638074 2.19883 0.00689213 146 4 1 5.137e-07 
-0.158468 -0.361465 -2.04862 0.0025 0.72961 0.643183 2.20385 0.00685297 147 4 1 5.07421e-07 
-0.155051 -0.355164 -2.04945 0.0025 0.733755 0.648303 2.20885 0.00681427 148 4 1 4.9368e-07 
-0.151653 -0.348912 -2.05049 0.0025 0.737892 0.653427 2.21382 0.00677606 149 4 1 4.83733e-07 
-0.148275 -0.342698 -2.04741 0.0025 0.742019 0.658548 2.21876 0.00673837 150 4 1 4.69253e-07 
-0.144915 -0.336536 -2.04049 0.0025 0.746131 0.663664 2.22367 0.00670124 151 4 1 4.85906e-07 
-0.141573 -0.330414 -2.0598 0.0025 0.750245 0.668792 2.22857 0.00666449 152 4 1 4.99807e-07 
-0.13825 -0.32427 -2.07231 0.0025 0.754373 0.673949 2.23347 0.00662802 153 4 1 4.55295e-07 
-0.134945 -0.318207 -2.04855 0.0025 0.758486 0.679099 2.23833 0.00659208 154 4 1 4.45814e-07 
-0.131658 -0.312224 -2.05427 0.0025 0.762581 0.684237 2.24315 0.00655668 155 4 1 4.77037e-07 
-0.128389 -0.306265 -2.06999 0.0025 0.766686 0.6894 2.24798 0.00652158 156 4 1 4.99864e-07 
-0.125137 -0.300328 -2.09928 0.0025 0.770821 0.694612 2.25282 0.00648659 157 4 1 5.04983e-07 
-0.121902 -0.294435 -2.11639 0.0025 0.774989 0.699875 2.25768 0.0064517 158 4 1 4.76883e-07 
-0.118685 -0.28865 -2.11217 0.0025 0.779168 0.705164 2.26254 0.0064171 159 4 1 4.82011e-07 
-0.115485 -0.283023 -2.13058 0.0025 0.783362 0.710486 2.26741 0.00638274 160 4 1 5.5217e-07 
-0.112302 -0.277479 -2.19417 0.0025 0.787625 0.715906 2.27233 0.0063482 161 4 1 6.02686e-07 
-0.109137 -0.272056 -2.25108 0.0025 0.79199 0.721468 2.27736 0.00631321 162 4 1 6.33583e-07 
-0.105989 -0.266824 -2.32132 0.0025 0.796469 0.727187 2.2825 0.00627771 163 4 1 6.64239e-07 
-0.102859 -0.261821 -2.38424 0.0025 0.801069 0.733073 2.28777 0.00624166 164 4 1 6.85934e-07 
-0.099747 -0.257136 -2.4489 0.0025 0.805791 0.739133 2.29315 0.00620508 165 4 1 7.88953e-07 
-0.0966537 -0.2527 -2.5886 0.0025 0.810694 0.745437 2.29872 0.00616756 166 4 1 8.45518e-07 
-0.0935794 -0.248504 -2.6799 0.0025 0.815794 0.75201 2.3045 0.006129 167 4 1 8.42031e-07 
-0.0905246 -0.24456 -2.77468 0.0025 0.821056 0.758807 2.31043 0.00608972 168 4 1 8.2225e-07 
-0.0874896 -0.24078 -2.81914 0.0025 0.826434 0.765772 2.31647 0.00605009 169 4 1 7.37826e-07 
-0.0844745 -0.237187 -2.8105 0.0025 0.831852 0.77281 2.32254 0.00601068 170 4 1 7.60455e-07 
-0.0814789 -0.233714 -2.87266 0.0025 0.837317 0.77993 2.32863 0.00597145 171 4 1 8.21189e-07 
-0.078503 -0.230318 -2.93707 0.0025 0.842876 0.787187 2.3348 0.00593207 172 4 1 8.38779e-07 
-0.0755468 -0.227138 -3.03307 0.0025 0.848527 0.794579 2.34105 0.00589257 173 4 1 7.06769e-07 
-0.0726103 -0.223956 -2.98858 0.0025 0.854133 0.801918 2.34723 0.00585389 174 4 1 6.35544e-08 
-0.0696928 -0.220109 -2.44382 0.0025 0.859204 0.808576 2.35281 0.00581934 175 4 1 -5.37553e-07 
-0.0667909 -0.214911 -1.83287 0.0025 0.863348 0.814058 2.35734 0.0057914 176 4 1 -2.72082e-07 
-0.0639014 -0.208787 -1.79224 0.0025 0.866932 0.818816 2.36122 0.00576747 177 4 1 4.83375e-07 
-0.0610234 -0.203245 -2.22852 0.0025 0.870635 0.823697 2.36525 0.00574294 178 4 1 1.64919e-07 
-0.0581584 -0.197806 -1.79351 0.0025 0.874113 0.828252 2.36906 0.00572009 179 4 1 -1.5394e-06 
-0.0553033 -0.18958 -0.0979142 0.0025 0.875929 0.830675 2.37106 0.00570822 180 4 1 -1.6851e-06 
-0.0524502 -0.178427 0.433503 0.0025 0.876132 0.831037 2.37121 0.00570691 181 4 1 7.33873e-07 
-0.0495964 -0.168976 -1.26121 0.0025 0.877066 0.832289 2.37217 0.00570083 182 4 1 1.74398e-06 
-0.0467493 -0.162812 -1.82379 0.0025 0.879433 0.835326 2.37479 0.00568548 183 4 1 -1.09003e-06 
-0.0439109 -0.154505 0.339293 0.0025 0.88065 0.836934 2.37617 0.00567763 184 3 1 -2.08487e-06 
-0.0410717 -0.141994 1.0107 0.0025 0.879936 0.836102 2.37533 0.00568223 185 5 1 8.02623e-07 
-0.0382287 -0.131227 -0.927101 0.0025 0.880036 0.836238 2.37538 0.00568159 186 4 1 1.71214e-06 
-0.0353901 -0.124051 -1.24159 0.0025 0.881616 0.838242 2.37714 0.0056714 187 4 1 -8.66592e-07 
-0.0325573 -0.115076 0.35139 0.0025 0.882352 0.839233 2.37798 0.00566667 188 3 1 -1.19169e-06 
-0.0297235 -0.103753 0.345377 0.0025 0.882008 0.83884 2.37756 0.00566888 189 5 1 5.39995e-07 
-0.0268884 -0.093791 -0.449581 0.0025 0.882149 0.83901 2.37769 0.00566797 190 4 1 5.14494e-07 
-0.0240555 -0.0846302 -0.326875 0.0025 0.882733 0.839766 2.37835 0.00566423 191 4 1 -2.42631e-07 
-0.0212242 -0.0743772 -0.114585 0.0025 0.883103 0.840262 2.37876 0.00566185 192 4 1 -3.19192e-07 
-0.0183936 -0.0643171 0.111879 0.0025 0.883169 0.840356 2.37883 0.00566143 193 3 1 -8.67243e-08 
-0.0155628 -0.0544856 -0.0171774 0.0025 0.883156 0.840354 2.3788 0.00566151 194 5 1 3.5683e-07 
-0.0127321 -0.0453014 -0.383621 0.0025 0.883453 0.840738 2.37914 0.00565961 195 4 1 -1.85593e-08 
-0.00990314 -0.0351223 0.0300553 0.0025 0.883701 0.841056 2.37943 0.00565802 196 3 1 -5.65286e-07 
-0.00707409 -0.0246037 0.372616 0.0025 0.883454 0.840757 2.37915 0.00565961 197 4 1 2.25187e-07 
-0.00424354 -0.0144599 -0.28783 0.0025 0.883411 0.840706 2.3791 0.00565988 198 5 1 4.20804e-07 
-0.00141421 -0.00480538 -0.215359 0.0025 0.883744 0.841121 2.37948 0.00565775 199 3 1 -3.62893e-07 
0.00141421 0.00480538 0.215359 0.0025 0.883744 0.841121 2.37948 0.00565775 200 3 1 -3.62893e-07 
0.00424354 0.0144599 0.28783 0.0025 0.883411 0.840706 2.3791 0.00565988 201 5 1 4.20804e-07 
0.00707409 0.0246037 -0.372616 0.0025 0.883454 0.840757 2.37915 0.00565961 202 4 1 2.25187e-07 
0.00990314 0.0351223 -0.0300553 0.0025 0.883701 0.841056 2.37943 0.00565802 203 3 1 -5.65286e-07 
0.0127321 0.0453014 0.383621 0.0025 0.883453 0.840738 2.37914 0.00565961 204 4 1 -1.85593e-08 
0.0155628 0.0544856 0.0171774 0.0025 0.883156 0.840354 2.3788 0.00566151 205 5 1 3.5683e-07 
0.0183936 0.0643171 -0.111879 0.0025 0.883169 0.840356 2.37883 0.00566143 206 3 1 -8.67243e-08 
0.0212242 0.0743772 0.114585 0.0025 0.883103 0.840262 2.37876 0.00566185 207 4 1 -3.19192e-07 
0.0240555 0.0846302 0.326875 0.0025 0.882733 0.839766 2.37835 0.00566423 208 4 1 -2.42631e-07 
0.0268884 0.093791 0.449581 0.0025 0.882149 0.83901 2.37769 0.00566797 209 4 1 5.14494e-07 
0.0297235 0.103753 -0.345377 0.0025 0.882008 0.83884 2.37756 0.00566888 210 5 1 5.39995e-07 
