# Time [s]: 0.460286
# Columns: pos [m], vel [m/s], acc [m/s^2], mass [kg], dens [kg/m^3], pres [Pa], ene [J/kg], sml [m], id, neighbor, alpha, gradh, ...additional?
1.19241 -0.673077 -4.44334e-05 0.0025 0.511061 0.432739 2.15252 0.00978357 0 4 1 -0.000134225 
1.19719 -0.673077 -4.31053e-05 0.0025 0.536919 0.426202 1.95006 0.00931239 1 4 1 0.000179254 
1.20173 -0.673078 -5.22938e-05 0.0025 0.54825 0.430872 1.96852 0.00911993 2 3 1 -1.90585e-05 
1.20631 -0.673078 -6.89123e-05 0.0025 0.545985 0.429208 1.96466 0.00915776 3 5 1 3.48562e-06 
1.21089 -0.673079 -9.39229e-05 0.0025 0.546384 0.429364 1.9646 0.00915107 4 4 1 -1.3861e-07 
1.21546 -0.67308 -0.000129808 0.0025 0.546395 0.429335 1.96437 0.00915088 5 4 1 1.43841e-07 
1.22004 -0.673081 -0.000178674 0.0025 0.546419 0.429335 1.96431 0.00915049 6 4 1 -3.36342e-09 
1.22461 -0.673083 -0.000241339 0.0025 0.546433 0.429333 1.96425 0.00915025 7 4 1 8.42088e-09 
1.22919 -0.673084 -0.000316429 0.0025 0.546448 0.429333 1.9642 0.00915 8 4 1 4.98288e-09 
1.23376 -0.673086 -0.00039963 0.0025 0.546462 0.429334 1.96415 0.00914977 9 4 1 5.71551e-09 
1.23834 -0.673089 -0.000483499 0.0025 0.546474 0.429335 1.96411 0.00914956 10 4 1 -1.99962e-09 
1.24291 -0.673092 -0.000558117 0.0025 0.546487 0.429336 1.96407 0.00914935 11 4 1 4.94301e-09 
1.24749 -0.673095 -0.000612624 0.0025 0.546499 0.429337 1.96404 0.00914916 12 4 1 3.01184e-09 
1.25206 -0.673099 -0.00063734 0.0025 0.546509 0.429339 1.964 0.00914898 13 4 1 3.65521e-09 
1.25664 -0.673102 -0.000625891 0.0025 0.546519 0.42934 1.96398 0.00914882 14 4 1 2.11113e-09 
1.26121 -0.673106 -0.000576702 0.0025 0.546528 0.429342 1.96395 0.00914866 15 4 1 -1.6849e-09 
1.26579 -0.673109 -0.000493403 0.0025 0.546537 0.429343 1.96392 0.00914851 16 4 1 4.71522e-09 
1.27036 -0.673112 -0.000384017 0.0025 0.546544 0.429344 1.9639 0.00914839 17 4 1 1.23119e-09 
1.27493 -0.673115 -0.000259247 0.0025 0.546551 0.429345 1.96388 0.00914827 18 4 1 -1.48017e-09 
1.27951 -0.673117 -0.000130364 0.0025 0.546558 0.429346 1.96386 0.00914816 19 4 1 2.40672e-09 
1.28408 -0.673119 -7.30804e-06 0.0025 0.546564 0.429346 1.96384 0.00914807 20 4 1 8.95562e-10 
1.28866 -0.67312 0.000102595 0.0025 0.546569 0.429346 1.96382 0.00914798 21 4 1 9.56268e-10 
1.29323 -0.673121 0.000195122 0.0025 0.546573 0.429346 1.96381 0.00914791 22 4 1 8.72266e-10 
1.2978 -0.673121 0.000268965 0.0025 0.546577 0.429345 1.96379 0.00914785 23 4 1 -3.02308e-10 
1.30238 -0.673122 0.000325096 0.0025 0.54658 0.429345 1.96378 0.00914779 24 4 1 1.40081e-09 
1.30695 -0.673122 0.000365973 0.0025 0.546583 0.429344 1.96376 0.00914774 25 4 1 7.0785e-10 
1.31153 -0.673122 0.000394742 0.0025 0.546585 0.429343 1.96375 0.0091477 26 4 1 -3.49472e-10 
1.3161 -0.673123 0.000414566 0.0025 0.546588 0.429342 1.96374 0.00914766 27 4 1 1.26591e-09 
1.32067 -0.673123 0.000428135 0.0025 0.54659 0.429341 1.96372 0.00914763 28 4 1 9.30593e-10 
1.32525 -0.673123 0.00043742 0.0025 0.546592 0.42934 1.96371 0.0091476 29 4 1 -6.89602e-10 
1.32982 -0.673124 0.00044369 0.0025 0.546594 0.429338 1.9637 0.00914757 30 4 1 5.87518e-10 
1.3344 -0.673124 0.000447727 0.0025 0.546595 0.429337 1.96369 0.00914754 31 4 1 2.04744e-09 
1.33897 -0.673125 0.000450123 0.0025 0.546596 0.429336 1.96368 0.00914752 32 4 1 -7.81565e-10 
1.34354 -0.673126 0.000451534 0.0025 0.546597 0.429335 1.96367 0.0091475 33 4 1 -7.58054e-10 
1.34812 -0.673127 0.000452888 0.0025 0.546599 0.429334 1.96366 0.00914748 34 4 1 2.18135e-09 
1.35269 -0.673128 0.000455613 0.0025 0.5466 0.429333 1.96365 0.00914746 35 4 1 -1.50555e-10 
1.35726 -0.67313 0.000461813 0.0025 0.5466 0.429331 1.96364 0.00914745 36 4 1 -8.26721e-10 
1.36184 -0.673131 0.000474144 0.0025 0.546601 0.42933 1.96364 0.00914744 37 4 1 1.46921e-09 
1.36641 -0.673133 0.000495123 0.0025 0.546602 0.429329 1.96363 0.00914743 38 4 1 1.2427e-10 
1.37099 -0.673135 0.000525963 0.0025 0.546602 0.429328 1.96362 0.00914742 39 4 1 -7.15902e-10 
1.37556 -0.673137 0.000565633 0.0025 0.546602 0.429326 1.96361 0.00914742 40 4 1 7.14494e-10 
1.38013 -0.67314 0.000611082 0.0025 0.546603 0.429325 1.9636 0.00914741 41 3 1 4.35981e-10 
1.38471 -0.673142 0.000658964 0.0025 0.546602 0.429323 1.9636 0.00914742 42 4 1 -6.3267e-10 
1.38928 -0.673145 0.000707982 0.0025 0.546602 0.429321 1.96359 0.00914742 43 4 1 -1.22849e-11 
1.39385 -0.673147 0.000760124 0.0025 0.546602 0.429319 1.96358 0.00914743 44 4 1 9.56496e-10 
1.39843 -0.67315 0.000819463 0.0025 0.546601 0.429317 1.96358 0.00914744 45 4 1 -3.95117e-10 
1.403 -0.673153 0.000888925 0.0025 0.5466 0.429315 1.96357 0.00914745 46 4 1 -7.66755e-10 
1.40757 -0.673156 0.000967166 0.0025 0.546599 0.429313 1.96356 0.00914747 47 4 1 5.26354e-10 
1.41215 -0.67316 0.00104812 0.0025 0.546598 0.42931 1.96356 0.00914749 48 4 1 2.06398e-10 
1.41672 -0.673163 0.00112407 0.0025 0.546596 0.429307 1.96355 0.00914752 49 4 1 -6.6658e-10 
1.4213 -0.673167 0.00119064 0.0025 0.546595 0.429304 1.96354 0.00914754 50 4 1 -3.29087e-10 
1.42587 -0.673171 0.00125039 0.0025 0.546593 0.429301 1.96353 0.00914757 51 4 1 6.25249e-10 
1.43044 -0.673176 0.0013124 0.0025 0.546591 0.429298 1.96353 0.00914761 52 4 1 -1.03326e-10 
1.43502 -0.673181 0.00138799 0.0025 0.546588 0.429294 1.96352 0.00914765 53 4 1 -8.83582e-10 
1.43959 -0.673187 0.00148495 0.0025 0.546586 0.429291 1.96351 0.00914769 54 4 1 -8.77084e-11 
1.44417 -0.673193 0.00160384 0.0025 0.546583 0.429287 1.9635 0.00914774 55 4 1 4.66975e-10 
1.44874 -0.6732 0.00173781 0.0025 0.54658 0.429282 1.96349 0.00914779 56 4 1 -5.9704e-10 
1.45331 -0.673207 0.00187629 0.0025 0.546577 0.429278 1.96348 0.00914785 57 4 1 -1.00006e-09 
1.45789 -0.673214 0.00201092 0.0025 0.546573 0.429273 1.96347 0.00914791 58 4 1 2.26366e-10 
1.46246 -0.673223 0.00214181 0.0025 0.546569 0.429267 1.96346 0.00914798 59 4 1 -5.27355e-11 
1.46703 -0.673232 0.00228078 0.0025 0.546564 0.429261 1.96345 0.00914806 60 4 1 -7.91965e-10 
1.47161 -0.673242 0.00244803 0.0025 0.546559 0.429255 1.96344 0.00914814 61 4 1 -6.83515e-10 
1.47618 -0.673253 0.00266122 0.0025 0.546554 0.429248 1.96343 0.00914823 62 4 1 -1.52879e-10 
1.48076 -0.673265 0.00292259 0.0025 0.546548 0.429241 1.96342 0.00914833 63 4 1 -6.21817e-10 
1.48533 -0.673278 0.00321419 0.0025 0.546541 0.429233 1.96341 0.00914844 64 4 1 -1.13087e-09 
1.48991 -0.673292 0.00350885 0.0025 0.546534 0.429224 1.96339 0.00914856 65 4 1 -7.56659e-10 
1.49448 -0.673308 0.00379299 0.0025 0.546526 0.429215 1.96338 0.0091487 66 4 1 -6.6898e-10 
1.49905 -0.673325 0.00408498 0.0025 0.546517 0.429205 1.96336 0.00914885 67 4 1 -9.60046e-10 
-0.496371 -0.673343 0.00443108 0.0025 0.546507 0.429193 1.96335 0.00914901 68 4 1 -1.17888e-09 
-0.491797 -0.673364 0.00487648 0.0025 0.546497 0.429181 1.96333 0.00914919 69 4 1 -1.14549e-09 
-0.487222 -0.673387 0.00543144 0.0025 0.546485 0.429167 1.96331 0.00914939 70 4 1 -1.60397e-09 
-0.482647 -0.673413 0.00606201 0.0025 0.546472 0.429152 1.96329 0.00914961 71 4 1 -1.99754e-09 
-0.478072 -0.67344 0.00671879 0.0025 0.546457 0.429136 1.96326 0.00914985 72 4 1 -1.84482e-09 
-0.473497 -0.673471 0.00738504 0.0025 0.54644 0.429117 1.96324 0.00915013 73 4 1 -1.94131e-09 
-0.468922 -0.673505 0.00810284 0.0025 0.546422 0.429096 1.96321 0.00915043 74 4 1 -2.31816e-09 
-0.464347 -0.673544 0.00894976 0.0025 0.546402 0.429074 1.96318 0.00915077 75 4 1 -2.65433e-09 
-0.459772 -0.673587 0.00998358 0.0025 0.54638 0.429049 1.96314 0.00915115 76 4 1 -3.06162e-09 
-0.455196 -0.673635 0.011207 0.0025 0.546354 0.429021 1.96311 0.00915157 77 4 1 -3.54335e-09 
-0.45062 -0.673688 0.0125815 0.0025 0.546326 0.428989 1.96306 0.00915204 78 4 1 -4.01257e-09 
-0.446044 -0.673747 0.0140624 0.0025 0.546295 0.428954 1.96302 0.00915257 79 4 1 -4.2859e-09 
-0.441467 -0.673812 0.0156137 0.0025 0.54626 0.428915 1.96296 0.00915316 80 4 1 -4.39998e-09 
-0.436891 -0.673885 0.0172141 0.0025 0.546221 0.428872 1.96291 0.00915381 81 4 1 -4.4841e-09 
-0.432314 -0.673965 0.0188673 0.0025 0.546178 0.428824 1.96284 0.00915453 82 4 1 -4.51084e-09 
-0.427736 -0.674054 0.0205926 0.0025 0.546131 0.428772 1.96277 0.00915531 83 4 1 -4.46207e-09 
-0.423158 -0.674151 0.0223871 0.0025 0.54608 0.428717 1.9627 0.00915616 84 4 1 -4.33993e-09 
-0.41858 -0.674256 0.0241967 0.0025 0.546026 0.428657 1.96262 0.00915707 85 4 1 -3.98319e-09 
-0.414001 -0.674366 0.0258921 0.0025 0.545968 0.428593 1.96254 0.00915804 86 4 1 -3.18093e-09 
-0.409422 -0.674481 0.0271954 0.0025 0.545908 0.428526 1.96245 0.00915906 87 4 1 -1.50743e-09 
-0.404842 -0.674599 0.0276656 0.0025 0.545845 0.428457 1.96236 0.0091601 88 4 1 1.09139e-09 
-0.400262 -0.674718 0.0270895 0.0025 0.545784 0.42839 1.96227 0.00916113 89 4 1 4.04764e-09 
-0.395681 -0.674835 0.0258531 0.0025 0.545726 0.428325 1.96218 0.00916211 90 4 1 6.36099e-09 
-0.3911 -0.674944 0.0241479 0.0025 0.545672 0.428267 1.9621 0.00916301 91 4 1 8.25737e-09 
-0.386518 -0.675039 0.0212547 0.0025 0.545626 0.428216 1.96204 0.00916379 92 4 1 1.17551e-08 
-0.381936 -0.675115 0.0164971 0.0025 0.545589 0.428175 1.96198 0.0091644 93 4 1 1.64964e-08 
-0.377354 -0.675169 0.0102735 0.0025 0.545566 0.428149 1.96195 0.0091648 94 4 1 1.3745e-08 
-0.372771 -0.675196 0.00909876 0.0025 0.545554 0.428137 1.96193 0.00916499 95 5 1 3.34904e-08 
-0.368189 -0.675192 -0.0154509 0.0025 0.545571 0.428156 1.96195 0.00916471 96 4 1 5.55323e-08 
-0.363606 -0.675074 -0.0285627 0.0025 0.545634 0.428227 1.96204 0.00916366 97 4 1 1.05795e-07 
-0.359025 -0.674845 -0.0817226 0.0025 0.545786 0.428399 1.96226 0.0091611 98 4 1 2.51613e-07 
-0.354445 -0.674217 -0.209867 0.0025 0.546141 0.428794 1.96277 0.00915515 99 4 1 3.85165e-07 
-0.34987 -0.672966 -0.358374 0.0025 0.546796 0.429515 1.96371 0.00914418 100 4 1 4.30265e-07 
-0.345301 -0.67111 -0.489938 0.0025 0.547768 0.430586 1.96511 0.00912795 101 4 1 4.94913e-07 
-0.340742 -0.668639 -0.650079 0.0025 0.549082 0.432035 1.96699 0.00910612 102 4 1 6.50749e-07 
-0.336195 -0.665371 -0.861201 0.0025 0.550811 0.433944 1.96946 0.00907753 103 4 1 8.14701e-07 
-0.331664 -0.661166 -1.09012 0.0025 0.553016 0.436378 1.97261 0.00904133 104 4 1 8.93942e-07 
-0.327154 -0.65605 -1.28931 0.0025 0.55568 0.439319 1.97641 0.00899799 105 4 1 8.49794e-07 
-0.322666 -0.650292 -1.41468 0.0025 0.558696 0.442656 1.9807 0.00894941 106 4 1 7.43626e-07 
-0.318204 -0.644158 -1.48241 0.0025 0.561934 0.446248 1.98528 0.00889784 107 4 1 6.79465e-07 
-0.313768 -0.637836 -1.53064 0.0025 0.565312 0.450007 1.99005 0.00884468 108 4 1 6.94577e-07 
-0.309359 -0.631327 -1.59117 0.0025 0.568812 0.453913 1.99497 0.00879025 109 4 1 7.49976e-07 
-0.304978 -0.62459 -1.66037 0.0025 0.57245 0.457983 2.00006 0.00873439 110 4 1 8.16455e-07 
-0.300625 -0.617594 -1.74363 0.0025 0.576243 0.462238 2.00535 0.00867689 111 4 1 8.58237e-07 
-0.296301 -0.610333 -1.81506 0.0025 0.580191 0.466677 2.01083 0.00861785 112 4 1 8.63165e-07 
-0.292007 -0.602882 -1.87524 0.0025 0.584269 0.471273 2.01648 0.0085577 113 4 1 8.24718e-07 
-0.287743 -0.59533 -1.90073 0.0025 0.58843 0.475977 2.02221 0.00849719 114 4 1 7.73852e-07 
-0.28351 -0.587745 -1.91675 0.0025 0.592628 0.480736 2.02797 0.008437 115 4 1 7.29279e-07 
-0.279306 -0.580189 -1.91486 0.0025 0.596832 0.485515 2.03371 0.00837757 116 4 1 6.80541e-07 
-0.275132 -0.572733 -1.90475 0.0025 0.601012 0.490282 2.03939 0.0083193 117 4 1 6.33566e-07 
-0.270987 -0.565394 -1.88223 0.0025 0.605149 0.495013 2.045 0.00826242 118 4 1 5.98378e-07 
-0.266869 -0.558196 -1.8622 0.0025 0.609234 0.499696 2.05051 0.00820703 119 4 1 5.93691e-07 
-0.26278 -0.551111 -1.85447 0.0025 0.613276 0.504345 2.05594 0.00815293 120 4 1 5.89425e-07 
-0.258716 -0.544104 -1.84659 0.0025 0.617288 0.508969 2.06131 0.00809995 121 4 1 5.53901e-07 
-0.25468 -0.537211 -1.82205 0.0025 0.621255 0.513554 2.0666 0.00804822 122 4 1 5.32841e-07 
-0.250668 -0.53045 -1.80993 0.0025 0.625177 0.5181 2.0718 0.00799773 123 4 1 5.44231e-07 
-0.246682 -0.523751 -1.81021 0.0025 0.629073 0.522625 2.07696 0.0079482 124 4 1 5.26338e-07 
-0.24272 -0.517136 -1.79377 0.0025 0.632941 0.527129 2.08206 0.00789963 125 4 1 5.02655e-07 
-0.238782 -0.510621 -1.78223 0.0025 0.636773 0.531603 2.08709 0.00785209 126 4 1 5.11796e-07 
-0.234868 -0.504173 -1.78435 0.0025 0.640586 0.536065 2.09208 0.00780535 127 4 1 5.1462e-07 
-0.230977 -0.49775 -1.78381 0.0025 0.644389 0.540525 2.09704 0.00775929 128 4 1 5.01572e-07 
-0.227108 -0.491402 -1.77903 0.0025 0.648178 0.54498 2.10196 0.00771393 129 4 1 4.99771e-07 
-0.223263 -0.485094 -1.78096 0.0025 0.651959 0.549436 2.10686 0.0076692 130 4 1 5.17606e-07 
-0.219439 -0.478804 -1.79561 0.0025 0.655747 0.553912 2.11174 0.00762489 131 4 1 5.35446e-07 
-0.215638 -0.472499 -1.81359 0.0025 0.659559 0.558425 2.11664 0.00758082 132 4 1 5.37365e-07 
-0.211858 -0.466172 -1.82749 0.0025 0.663395 0.562977 2.12156 0.00753699 133 4 1 5.4047e-07 
-0.208101 -0.459851 -1.84464 0.0025 0.667256 0.567569 2.12649 0.00749338 134 4 1 5.49619e-07 
-0.204365 -0.453498 -1.86373 0.0025 0.671147 0.572209 2.13144 0.00744993 135 4 1 5.68449e-07 
-0.200651 -0.447126 -1.89411 0.0025 0.67508 0.576909 2.13643 0.00740653 136 4 1 5.9212e-07 
-0.196958 -0.440676 -1.92997 0.0025 0.679066 0.581683 2.14146 0.00736306 137 4 1 5.71503e-07 
-0.193287 -0.43419 -1.93661 0.0025 0.683086 0.586509 2.14653 0.00731972 138 4 1 5.42569e-07 
-0.189638 -0.427753 -1.94236 0.0025 0.687117 0.59136 2.15158 0.00727678 139 4 1 5.59397e-07 
-0.186011 -0.421286 -1.96776 0.0025 0.69117 0.596249 2.15665 0.00723411 140 4 1 5.71385e-07 
-0.182404 -0.414802 -1.98675 0.0025 0.695254 0.601186 2.16174 0.00719162 141 4 1 5.39735e-07 
-0.178819 -0.408332 -1.98167 0.0025 0.699345 0.606144 2.16682 0.00714955 142 4 1 5.32523e-07 
-0.175255 -0.401901 -1.99641 0.0025 0.703438 0.611117 2.17188 0.00710795 143 4 1 5.30364e-07 
-0.171711 -0.395489 -1.99603 0.0025 0.707536 0.616106 2.17693 0.00706678 144 4 1 5.22711e-07 
-0.168188 -0.389106 -2.00726 0.0025 0.711635 0.621109 2.18197 0.00702608 145 4 1 5.12215e-07 
-0.164685 -0.382757 -2.00258 0.0025 0.715731 0.626119 2.18698 0.00698587 146 4 1 4.97237e-07 
-0.161202 -0.37646 -2.00431 0.0025 0.719816 0.631128 2.19197 0.00694622 147 4 1 4.93495e-07 
-0.157739 -0.370199 -2.00271 0.0025 0.723894 0.636139 2.19693 0.00690709 148 4 1 4.96291e-07 
-0.154295 -0.363969 -2.0126 0.0025 0.72797 0.64116 2.20186 0.00686841 149 4 1 4.98964e-07 
-0.15087 -0.357763 -2.01808 0.0025 0.732051 0.646196 2.20679 0.00683013 150 4 1 4.84993e-07 
-0.147464 -0.351597 -2.01788 0.0025 0.736128 0.651241 2.2117 0.00679229 151 4 1 4.82874e-07 
-0.144078 -0.345476 -2.02529 0.0025 0.740204 0.656294 2.21659 0.0067549 152 4 1 4.71305e-07 
-0.14071 -0.3394 -2.01812 0.0025 0.744273 0.661351 2.22146 0.00671796 153 4 1 4.70232e-07 
-0.13736 -0.333414 -2.02673 0.0025 0.748341 0.666418 2.2263 0.00668145 154 4 1 5.1575e-07 
-0.134028 -0.327445 -2.06706 0.0025 0.752441 0.671536 2.23118 0.00664504 155 4 1 5.13657e-07 
-0.130715 -0.321534 -2.0713 0.0025 0.756574 0.676705 2.23607 0.00660874 156 4 1 4.91831e-07 
-0.127419 -0.315757 -2.08109 0.0025 0.760721 0.681904 2.24096 0.00657271 157 4 1 5.26802e-07 
-0.124142 -0.310109 -2.1157 0.0025 0.764909 0.687167 2.24589 0.00653673 158 4 1 5.86433e-07 
-0.120882 -0.304587 -2.17606 0.0025 0.76918 0.692546 2.2509 0.00650043 159 4 1 6.5025e-07 
-0.117641 -0.299219 -2.25496 0.0025 0.773572 0.69809 2.25603 0.00646352 160 4 1 6.87542e-07 
-0.114419 -0.294043 -2.32526 0.0025 0.778098 0.703814 2.2613 0.00642592 161 4 1 6.96324e-07 
-0.111215 -0.289175 -2.38194 0.0025 0.782747 0.709709 2.26669 0.00638776 162 4 1 7.62832e-07 
-0.108031 -0.284626 -2.48951 0.0025 0.787548 0.715813 2.27224 0.00634882 163 4 1 8.55041e-07 
-0.104867 -0.280339 -2.60936 0.0025 0.792546 0.72218 2.278 0.00630878 164 4 1 8.67212e-07 
-0.101722 -0.276314 -2.69149 0.0025 0.79772 0.728787 2.28394 0.00626787 165 4 1 8.54506e-07 
-0.0985986 -0.272468 -2.76451 0.0025 0.803026 0.735581 2.29 0.00622645 166 4 1 7.81279e-07 
-0.0954957 -0.268781 -2.75354 0.0025 0.808394 0.742472 2.29611 0.0061851 167 4 1 7.66039e-07 
-0.0924134 -0.265256 -2.79889 0.0025 0.813802 0.749439 2.30224 0.006144 168 4 1 8.79839e-07 
-0.0893516 -0.261861 -2.91167 0.0025 0.819331 0.756577 2.30849 0.00610254 169 4 1 9.28383e-07 
-0.0863108 -0.258723 -3.02226 0.0025 0.824998 0.763906 2.31486 0.00606062 170 4 1 7.26417e-07 
-0.083291 -0.255623 -2.94606 0.0025 0.83061 0.771169 2.32116 0.00601967 171 4 1 3.27885e-08 
-0.0802911 -0.251682 -2.37828 0.0025 0.835648 0.777712 2.32679 0.00598338 172 4 1 -5.54515e-07 
-0.0773075 -0.246332 -1.78631 0.0025 0.83976 0.783095 2.33136 0.00595408 173 4 1 -1.01051e-07 
-0.0743369 -0.240351 -1.93369 0.0025 0.843447 0.787934 2.33542 0.00592805 174 4 1 6.07091e-07 
-0.0713794 -0.23509 -2.28885 0.0025 0.847314 0.792963 2.3397 0.005901 175 4 1 -1.42009e-07 
-0.0684359 -0.229541 -1.53899 0.0025 0.850678 0.797324 2.34346 0.00587766 176 4 1 -1.77405e-06 
-0.0655018 -0.220692 0.0859375 0.0025 0.852214 0.799373 2.34516 0.00586707 177 4 1 -1.3368e-06 
-0.0625688 -0.209497 0.143276 0.0025 0.852504 0.799845 2.34541 0.00586507 178 4 1 1.16634e-06 
-0.0596367 -0.200765 -1.58171 0.0025 0.853874 0.801627 2.34688 0.00585566 179 4 1 1.38696e-06 
-0.0567132 -0.194646 -1.55387 0.0025 0.856304 0.804714 2.34963 0.00583905 180 4 1 -1.61608e-06 
-0.0537976 -0.185375 0.664428 0.0025 0.857135 0.805829 2.35058 0.00583339 181 3 1 -1.76906e-06 
-0.0508798 -0.172611 0.749506 0.0025 0.856377 0.804948 2.34967 0.00583855 182 5 1 1.32987e-06 
-0.0479591 -0.162675 -1.24704 0.0025 0.856881 0.805586 2.35018 0.00583512 183 4 1 1.45986e-06 
-0.0450446 -0.15555 -1.07681 0.0025 0.8586 0.807753 2.35214 0.00582343 184 4 1 -1.27673e-06 
-0.0421356 -0.145768 0.536716 0.0025 0.859123 0.808474 2.35274 0.00581989 185 3 1 -1.00767e-06 
-0.0392248 -0.134245 0.199869 0.0025 0.858755 0.808049 2.35228 0.00582238 186 5 1 8.17221e-07 
-0.0363133 -0.124757 -0.602738 0.0025 0.859101 0.808474 2.35265 0.00582004 187 4 1 3.55955e-07 
-0.0334047 -0.115506 -0.234903 0.0025 0.85974 0.809295 2.35338 0.00581571 188 4 1 -4.59934e-07 
-0.0304975 -0.105066 0.0135943 0.0025 0.859981 0.80963 2.35364 0.00581408 189 4 1 -1.26646e-07 
-0.0275906 -0.0948653 -0.0731431 0.0025 0.860101 0.809791 2.35376 0.00581327 190 4 1 1.00011e-07 
-0.0246843 -0.0851639 -0.13402 0.0025 0.860305 0.810064 2.35398 0.00581189 191 4 1 1.97499e-07 
-0.0217787 -0.0755611 -0.347543 0.0025 0.860675 0.810534 2.3544 0.0058094 192 4 1 -2.58998e-07 
-0.0188749 -0.0656476 0.237081 0.0025 0.860779 0.810674 2.35452 0.00580869 193 3 1 -3.40209e-07 
-0.01597 -0.0548215 0.100412 0.0025 0.860586 0.81045 2.3543 0.00580999 194 5 1 4.0321e-07 
-0.0130649 -0.0446598 -0.331846 0.0025 0.860774 0.810688 2.35451 0.00580873 195 4 1 2.39756e-07 
-0.0101613 -0.0349926 -0.208101 0.0025 0.861163 0.811177 2.35496 0.0058061 196 3 1 -4.67988e-07 
-0.00725878 -0.0253053 0.30475 0.0025 0.861124 0.811143 2.35491 0.00580637 197 4 1 -9.05572e-08 
-0.00435495 -0.0152905 -0.0872523 0.0025 0.860986 0.81098 2.35476 0.0058073 198 5 1 2.92053e-07 
-0.00145149 -0.00497776 -0.115632 0.0025 0.861114 0.811131 2.35491 0.00580644 199 3 1 -1.46932e-07 
0.00145149 0.00497776 0.115632 0.0025 0.861114 0.811131 2.35491 0.00580644 200 3 1 -1.46932e-07 
0.00435495 0.0152905 0.0872523 0.0025 0.860986 0.81098 2.35476 0.0058073 201 5 1 2.92053e-07 
0.00725878 0.0253053 -0.30475 0.0025 0.861124 0.811143 2.35491 0.00580637 202 4 1 -9.05572e-08 
0.0101613 0.0349926 0.208101 0.0025 0.861163 0.811177 2.35496 0.0058061 203 3 1 -4.67988e-07 
0.0130649 0.0446598 0.331846 0.0025 0.860774 0.810688 2.35451 0.00580873 204 4 1 2.39756e-07 
0.01597 0.0548215 -0.100412 0.0025 0.860586 0.81045 2.3543 0.00580999 205 5 1 4.0321e-07 
0.0188749 0.0656476 -0.237081 0.0025 0.860779 0.810674 2.35452 0.00580869 206 3 1 -3.40209e-07 
0.0217787 0.0755611 0.347543 0.0025 0.860675 0.810534 2.3544 0.0058094 207 4 1 -2.58998e-07 
0.0246843 0.0851639 0.13402 0.0025 0.860305 0.810064 2.35398 0.00581189 208 4 1 1.97499e-07 
0.0275906 0.0948653 0.0731431 0.0025 0.860101 0.809791 2.35376 0.00581327 209 4 1 1.00011e-07 
0.0304975 0.105066 -0.0135943 0.0025 0.859981 0.80963 2.35364 0.00581408 210 4 1 -1.26646e-07 
