# Time [s]: 0.462513
# Columns: pos [m], vel [m/s], acc [m/s^2], mass [kg], dens [kg/m^3], pres [Pa], ene [J/kg], sml [m], id, neighbor, alpha, gradh, ...additional?
1.19091 -0.673077 -6.88892e-05 0.0025 0.511061 0.432739 2.15252 0.00978357 0 4 1 -0.000134225 
1.19569 -0.673077 -5.48133e-05 0.0025 0.536919 0.426202 1.95006 0.00931239 1 4 1 0.000179254 
1.20023 -0.673078 -6.37253e-05 0.0025 0.54825 0.430873 1.96852 0.00911993 2 3 1 -1.90585e-05 
1.20481 -0.673079 -8.47365e-05 0.0025 0.545985 0.429209 1.96466 0.00915775 3 5 1 3.48563e-06 
1.20939 -0.673079 -0.000115831 0.0025 0.546384 0.429364 1.9646 0.00915107 4 4 1 -1.38594e-07 
1.21396 -0.67308 -0.000158744 0.0025 0.546396 0.429335 1.96437 0.00915088 5 4 1 1.43859e-07 
1.21854 -0.673082 -0.000214979 0.0025 0.546419 0.429335 1.96431 0.00915048 6 4 1 -3.34432e-09 
1.22311 -0.673083 -0.000284296 0.0025 0.546434 0.429333 1.96425 0.00915024 7 4 1 8.43778e-09 
1.22769 -0.673085 -0.000363837 0.0025 0.546449 0.429334 1.9642 0.00914999 8 4 1 4.99367e-09 
1.23226 -0.673087 -0.000447687 0.0025 0.546462 0.429334 1.96415 0.00914976 9 4 1 5.71619e-09 
1.23684 -0.67309 -0.000527124 0.0025 0.546475 0.429335 1.96411 0.00914955 10 4 1 -2.01214e-09 
1.24141 -0.673093 -0.000591737 0.0025 0.546488 0.429337 1.96407 0.00914934 11 4 1 4.91625e-09 
1.24599 -0.673096 -0.00063127 0.0025 0.546499 0.429338 1.96404 0.00914914 12 4 1 2.97252e-09 
1.25056 -0.6731 -0.000637744 0.0025 0.54651 0.42934 1.96401 0.00914896 13 4 1 3.60773e-09 
1.25514 -0.673104 -0.000607261 0.0025 0.54652 0.429341 1.96398 0.0091488 14 4 1 2.06176e-09 
1.25971 -0.673107 -0.000540932 0.0025 0.546529 0.429343 1.96395 0.00914865 15 4 1 -1.7294e-09 
1.26429 -0.67311 -0.000444658 0.0025 0.546538 0.429344 1.96393 0.0091485 16 4 1 4.68135e-09 
1.26886 -0.673113 -0.000327847 0.0025 0.546545 0.429345 1.9639 0.00914837 17 4 1 1.21146e-09 
1.27343 -0.673115 -0.000201494 0.0025 0.546552 0.429346 1.96388 0.00914826 18 4 1 -1.48492e-09 
1.27801 -0.673117 -7.61803e-05 0.0025 0.546558 0.429346 1.96386 0.00914815 19 4 1 2.41533e-09 
1.28258 -0.673119 3.95045e-05 0.0025 0.546564 0.429346 1.96384 0.00914806 20 4 1 9.14211e-10 
1.28716 -0.67312 0.000139835 0.0025 0.546569 0.429346 1.96383 0.00914798 21 4 1 9.80936e-10 
1.29173 -0.67312 0.000222087 0.0025 0.546573 0.429346 1.96381 0.00914791 22 4 1 8.99111e-10 
1.2963 -0.673121 0.00028612 0.0025 0.546577 0.429345 1.96379 0.00914785 23 4 1 -2.76354e-10 
1.30088 -0.673121 0.000333663 0.0025 0.54658 0.429345 1.96378 0.00914779 24 4 1 1.42384e-09 
1.30545 -0.673121 0.000367515 0.0025 0.546583 0.429344 1.96376 0.00914774 25 4 1 7.26974e-10 
1.31003 -0.673121 0.000390821 0.0025 0.546586 0.429343 1.96375 0.0091477 26 4 1 -3.34335e-10 
1.3146 -0.673122 0.000406493 0.0025 0.546588 0.429342 1.96374 0.00914766 27 4 1 1.27763e-09 
1.31917 -0.673122 0.000416844 0.0025 0.54659 0.429341 1.96372 0.00914762 28 4 1 9.398e-10 
1.32375 -0.673122 0.000423478 0.0025 0.546592 0.42934 1.96371 0.00914759 29 4 1 -6.82015e-10 
1.32832 -0.673123 0.000427411 0.0025 0.546594 0.429339 1.9637 0.00914756 30 4 1 5.94116e-10 
1.3329 -0.673123 0.000429329 0.0025 0.546595 0.429337 1.96369 0.00914754 31 4 1 2.05332e-09 
1.33747 -0.673124 0.000429858 0.0025 0.546596 0.429336 1.96368 0.00914752 32 4 1 -7.76487e-10 
1.34204 -0.673125 0.000429797 0.0025 0.546598 0.429335 1.96367 0.0091475 33 4 1 -7.54157e-10 
1.34662 -0.673126 0.000430332 0.0025 0.546599 0.429334 1.96366 0.00914747 34 4 1 2.1834e-09 
1.35119 -0.673127 0.000433233 0.0025 0.5466 0.429333 1.96365 0.00914746 35 4 1 -1.5115e-10 
1.35576 -0.673129 0.000440882 0.0025 0.546601 0.429332 1.96364 0.00914744 36 4 1 -8.30475e-10 
1.36034 -0.67313 0.000455851 0.0025 0.546602 0.429331 1.96364 0.00914743 37 4 1 1.46275e-09 
1.36491 -0.673132 0.000479966 0.0025 0.546602 0.429329 1.96363 0.00914742 38 4 1 1.16927e-10 
1.36949 -0.673134 0.000513247 0.0025 0.546603 0.429328 1.96362 0.00914741 39 4 1 -7.21324e-10 
1.37406 -0.673136 0.000553574 0.0025 0.546603 0.429327 1.96361 0.00914741 40 4 1 7.13326e-10 
1.37863 -0.673138 0.00059769 0.0025 0.546603 0.429325 1.96361 0.0091474 41 3 1 4.39282e-10 
1.38321 -0.673141 0.000643265 0.0025 0.546603 0.429324 1.9636 0.00914741 42 4 1 -6.27316e-10 
1.38778 -0.673143 0.000690681 0.0025 0.546603 0.429322 1.96359 0.00914741 43 4 1 -8.47278e-12 
1.39235 -0.673146 0.000743001 0.0025 0.546603 0.42932 1.96358 0.00914741 44 4 1 9.56762e-10 
1.39693 -0.673148 0.000803708 0.0025 0.546602 0.429318 1.96358 0.00914742 45 4 1 -3.96665e-10 
1.4015 -0.673151 0.0008735 0.0025 0.546601 0.429316 1.96357 0.00914744 46 4 1 -7.65028e-10 
1.40608 -0.673154 0.000948542 0.0025 0.5466 0.429314 1.96356 0.00914745 47 4 1 5.36635e-10 
1.41065 -0.673157 0.00102185 0.0025 0.546599 0.429311 1.96356 0.00914747 48 4 1 2.26728e-10 
1.41522 -0.673161 0.00108739 0.0025 0.546597 0.429308 1.96355 0.0091475 49 4 1 -6.40413e-10 
1.4198 -0.673165 0.00114434 0.0025 0.546596 0.429306 1.96354 0.00914753 50 4 1 -3.05183e-10 
1.42437 -0.673169 0.00119863 0.0025 0.546594 0.429303 1.96353 0.00914756 51 4 1 6.39522e-10 
1.42894 -0.673173 0.00126046 0.0025 0.546592 0.429299 1.96353 0.00914759 52 4 1 -1.00838e-10 
1.43352 -0.673178 0.00133928 0.0025 0.54659 0.429296 1.96352 0.00914763 53 4 1 -8.88304e-10 
1.43809 -0.673184 0.00143899 0.0025 0.546588 0.429292 1.96351 0.00914767 54 4 1 -9.0566e-11 
1.44267 -0.67319 0.00155618 0.0025 0.546585 0.429288 1.9635 0.00914771 55 4 1 4.75061e-10 
1.44724 -0.673196 0.00168191 0.0025 0.546582 0.429284 1.9635 0.00914776 56 4 1 -5.73465e-10 
1.45181 -0.673203 0.00180656 0.0025 0.546578 0.42928 1.96349 0.00914782 57 4 1 -9.63874e-10 
1.45639 -0.67321 0.00192596 0.0025 0.546575 0.429275 1.96348 0.00914788 58 4 1 2.6494e-10 
1.46096 -0.673218 0.0020461 0.0025 0.546571 0.42927 1.96347 0.00914794 59 4 1 -2.49896e-11 
1.46553 -0.673227 0.00218294 0.0025 0.546567 0.429264 1.96346 0.00914802 60 4 1 -7.8299e-10 
1.47011 -0.673237 0.00235517 0.0025 0.546562 0.429258 1.96345 0.00914809 61 4 1 -6.87877e-10 
1.47468 -0.673247 0.00257218 0.0025 0.546557 0.429252 1.96344 0.00914818 62 4 1 -1.50849e-10 
1.47926 -0.673259 0.00282532 0.0025 0.546551 0.429245 1.96343 0.00914828 63 4 1 -5.90014e-10 
1.48383 -0.673271 0.00309125 0.0025 0.546545 0.429237 1.96341 0.00914838 64 4 1 -1.06004e-09 
1.48841 -0.673285 0.00334916 0.0025 0.546538 0.429229 1.9634 0.0091485 65 4 1 -6.63329e-10 
1.49298 -0.673299 0.00360141 0.0025 0.54653 0.42922 1.96339 0.00914863 66 4 1 -5.87992e-10 
1.49755 -0.673316 0.00388034 0.0025 0.546522 0.42921 1.96337 0.00914877 67 4 1 -9.18545e-10 
-0.497871 -0.673334 0.00423113 0.0025 0.546512 0.429199 1.96335 0.00914892 68 4 1 -1.17009e-09 
-0.493297 -0.673354 0.00468014 0.0025 0.546502 0.429187 1.96334 0.00914909 69 4 1 -1.12635e-09 
-0.488722 -0.673376 0.00521354 0.0025 0.546491 0.429174 1.96332 0.00914928 70 4 1 -1.52448e-09 
-0.484148 -0.673399 0.00578798 0.0025 0.546478 0.42916 1.9633 0.00914949 71 4 1 -1.84223e-09 
-0.479573 -0.673426 0.0063697 0.0025 0.546464 0.429144 1.96328 0.00914973 72 4 1 -1.65045e-09 
-0.474998 -0.673455 0.00697168 0.0025 0.546449 0.429126 1.96325 0.00914999 73 4 1 -1.77015e-09 
-0.470423 -0.673488 0.00765433 0.0025 0.546432 0.429107 1.96322 0.00915028 74 4 1 -2.20529e-09 
-0.465848 -0.673524 0.0084853 0.0025 0.546413 0.429085 1.96319 0.0091506 75 4 1 -2.57762e-09 
-0.461272 -0.673565 0.00949429 0.0025 0.546391 0.429062 1.96316 0.00915095 76 4 1 -2.96476e-09 
-0.456697 -0.67361 0.0106638 0.0025 0.546368 0.429035 1.96312 0.00915135 77 4 1 -3.38585e-09 
-0.452121 -0.67366 0.0119551 0.0025 0.546341 0.429005 1.96308 0.0091518 78 4 1 -3.79342e-09 
-0.447545 -0.673716 0.013334 0.0025 0.546311 0.428972 1.96304 0.0091523 79 4 1 -4.03319e-09 
-0.442969 -0.673778 0.0147808 0.0025 0.546277 0.428935 1.96299 0.00915286 80 4 1 -4.16217e-09 
-0.438392 -0.673847 0.0162986 0.0025 0.54624 0.428893 1.96293 0.00915348 81 4 1 -4.32649e-09 
-0.433815 -0.673924 0.0179149 0.0025 0.5462 0.428848 1.96287 0.00915416 82 4 1 -4.49247e-09 
-0.429238 -0.674009 0.0196581 0.0025 0.546155 0.428799 1.96281 0.00915491 83 4 1 -4.61109e-09 
-0.42466 -0.674102 0.0215223 0.0025 0.546107 0.428745 1.96274 0.00915572 84 4 1 -4.65248e-09 
-0.420082 -0.674203 0.0234394 0.0025 0.546054 0.428687 1.96266 0.0091566 85 4 1 -4.41159e-09 
-0.415504 -0.674309 0.025231 0.0025 0.545998 0.428625 1.96258 0.00915755 86 4 1 -3.6119e-09 
-0.410925 -0.674421 0.0265653 0.0025 0.545938 0.428559 1.96249 0.00915855 87 4 1 -1.90801e-09 
-0.406345 -0.674538 0.0271314 0.0025 0.545877 0.428492 1.9624 0.00915958 88 4 1 3.68534e-10 
-0.401765 -0.674657 0.027021 0.0025 0.545816 0.428424 1.96231 0.0091606 89 4 1 2.54684e-09 
-0.397184 -0.674776 0.0265415 0.0025 0.545756 0.428359 1.96223 0.0091616 90 4 1 4.42968e-09 
-0.392603 -0.674889 0.0253732 0.0025 0.5457 0.428297 1.96214 0.00916254 91 4 1 6.73894e-09 
-0.388022 -0.67499 0.0227746 0.0025 0.54565 0.428242 1.96207 0.00916339 92 4 1 1.04503e-08 
-0.38344 -0.675076 0.0188177 0.0025 0.545608 0.428196 1.96201 0.00916409 93 4 1 1.43947e-08 
-0.378858 -0.675142 0.013832 0.0025 0.545578 0.428163 1.96197 0.0091646 94 4 1 1.55513e-08 
-0.374275 -0.675179 0.00689759 0.0025 0.545561 0.428144 1.96194 0.00916488 95 4 1 1.9059e-08 
-0.369693 -0.675205 0.00240827 0.0025 0.54556 0.428144 1.96194 0.0091649 96 5 1 4.52474e-08 
-0.365111 -0.675132 -0.0242376 0.0025 0.545596 0.428185 1.96199 0.00916428 97 4 1 7.41202e-08 
-0.360529 -0.674983 -0.0461587 0.0025 0.545696 0.428297 1.96213 0.00916261 98 4 1 1.64298e-07 
-0.355948 -0.6746 -0.135807 0.0025 0.545931 0.428561 1.96247 0.00915867 99 4 1 3.25432e-07 
-0.35137 -0.673682 -0.283377 0.0025 0.546424 0.429106 1.96318 0.00915041 100 4 1 4.15338e-07 
-0.346797 -0.672127 -0.423004 0.0025 0.547233 0.429996 1.96434 0.00913688 101 4 1 4.51403e-07 
-0.342233 -0.669986 -0.561671 0.0025 0.548365 0.431243 1.96596 0.00911802 102 4 1 5.58041e-07 
-0.337679 -0.667158 -0.745284 0.0025 0.549867 0.432902 1.96811 0.00909311 103 4 1 7.26068e-07 
-0.33314 -0.663456 -0.96627 0.0025 0.551814 0.435052 1.9709 0.00906102 104 4 1 8.63935e-07 
-0.328618 -0.658817 -1.19075 0.0025 0.554239 0.437728 1.97436 0.00902137 105 4 1 8.81878e-07 
-0.324119 -0.653377 -1.35238 0.0025 0.557079 0.440866 1.9784 0.00897538 106 4 1 7.95797e-07 
-0.319643 -0.647426 -1.44921 0.0025 0.560206 0.44433 1.98284 0.00892528 107 4 1 7.0076e-07 
-0.315193 -0.641211 -1.49996 0.0025 0.563507 0.447997 1.9875 0.008873 108 4 1 6.6935e-07 
-0.31077 -0.634827 -1.55084 0.0025 0.566929 0.45181 1.99232 0.00881945 109 4 1 7.0927e-07 
-0.306374 -0.628237 -1.61444 0.0025 0.570475 0.455773 1.9973 0.00876462 110 4 1 7.73336e-07 
-0.302005 -0.621419 -1.69023 0.0025 0.574167 0.459908 2.00246 0.00870827 111 4 1 8.33641e-07 
-0.297665 -0.614328 -1.7708 0.0025 0.578016 0.464229 2.00781 0.00865028 112 4 1 8.60593e-07 
-0.293355 -0.607021 -1.83823 0.0025 0.582011 0.468726 2.01335 0.0085909 113 4 1 8.35965e-07 
-0.289074 -0.599539 -1.87732 0.0025 0.586112 0.473354 2.01902 0.0085308 114 4 1 7.91539e-07 
-0.284824 -0.591997 -1.89997 0.0025 0.590272 0.478063 2.02474 0.00847068 115 4 1 7.52666e-07 
-0.280603 -0.584451 -1.91044 0.0025 0.594457 0.482813 2.03047 0.00841104 116 4 1 7.02013e-07 
-0.276413 -0.576974 -1.90224 0.0025 0.598635 0.48757 2.03616 0.00835233 117 4 1 6.51751e-07 
-0.272251 -0.569593 -1.88698 0.0025 0.602779 0.492301 2.04179 0.00829491 118 4 1 6.11169e-07 
-0.268118 -0.562347 -1.86455 0.0025 0.606875 0.49699 2.04733 0.00823893 119 4 1 5.87565e-07 
-0.264012 -0.555235 -1.84837 0.0025 0.610921 0.501635 2.05278 0.00818436 120 4 1 5.88522e-07 
-0.259933 -0.548217 -1.84398 0.0025 0.614931 0.506251 2.05816 0.00813099 121 4 1 5.7424e-07 
-0.255881 -0.541279 -1.83015 0.0025 0.618909 0.510841 2.06347 0.00807873 122 4 1 5.35514e-07 
-0.251854 -0.534476 -1.80565 0.0025 0.622839 0.515388 2.0687 0.00802776 123 4 1 5.32551e-07 
-0.247853 -0.527778 -1.80348 0.0025 0.626732 0.519904 2.07386 0.0079779 124 4 1 5.36308e-07 
-0.243876 -0.521135 -1.79631 0.0025 0.6306 0.524402 2.07897 0.00792895 125 4 1 5.10737e-07 
-0.239924 -0.514589 -1.78102 0.0025 0.634437 0.528874 2.08402 0.007881 126 4 1 4.9667e-07 
-0.235995 -0.508133 -1.77122 0.0025 0.638242 0.53332 2.08901 0.00783402 127 4 1 5.13113e-07 
-0.23209 -0.501722 -1.78055 0.0025 0.642034 0.537762 2.09397 0.00778775 128 4 1 5.07427e-07 
-0.228208 -0.495358 -1.77261 0.0025 0.645817 0.542202 2.09889 0.00774214 129 4 1 4.91852e-07 
-0.224348 -0.489051 -1.77142 0.0025 0.649584 0.546636 2.10378 0.00769723 130 4 1 5.01481e-07 
-0.22051 -0.482783 -1.77695 0.0025 0.653349 0.551077 2.10865 0.00765288 131 4 1 5.17619e-07 
-0.216695 -0.476515 -1.7925 0.0025 0.657127 0.555544 2.11352 0.00760888 132 4 1 5.35435e-07 
-0.212901 -0.470228 -1.81299 0.0025 0.66093 0.560051 2.1184 0.00756509 133 4 1 5.33049e-07 
-0.20913 -0.463936 -1.82316 0.0025 0.664758 0.564597 2.1233 0.00752153 134 4 1 5.39717e-07 
-0.20538 -0.45763 -1.84601 0.0025 0.668613 0.569186 2.12822 0.00747817 135 4 1 5.48666e-07 
-0.201651 -0.451308 -1.86161 0.0025 0.6725 0.573824 2.13316 0.00743495 136 4 1 5.67692e-07 
-0.197945 -0.444941 -1.89723 0.0025 0.67643 0.578525 2.13813 0.00739175 137 4 1 5.90076e-07 
-0.19426 -0.438499 -1.92926 0.0025 0.680413 0.583299 2.14316 0.00734847 138 4 1 5.51122e-07 
-0.190596 -0.432057 -1.92396 0.0025 0.684419 0.588111 2.1482 0.00730547 139 4 1 5.38309e-07 
-0.186954 -0.425642 -1.94261 0.0025 0.688435 0.592949 2.15323 0.00726285 140 4 1 5.62908e-07 
-0.183333 -0.419205 -1.96441 0.0025 0.692479 0.597831 2.15828 0.00722043 141 4 1 5.56071e-07 
-0.179734 -0.412741 -1.97693 0.0025 0.696547 0.602752 2.16335 0.00717827 142 4 1 5.33343e-07 
-0.176155 -0.406328 -1.97729 0.0025 0.700621 0.607693 2.1684 0.00713653 143 4 1 5.25247e-07 
-0.172597 -0.399924 -1.98612 0.0025 0.704696 0.612647 2.17343 0.00709526 144 4 1 5.23813e-07 
-0.16906 -0.393561 -1.99118 0.0025 0.708775 0.617618 2.17846 0.00705442 145 4 1 5.15876e-07 
-0.165543 -0.387212 -1.99669 0.0025 0.712855 0.6226 2.18346 0.00701405 146 4 1 5.00842e-07 
-0.162045 -0.380912 -1.99264 0.0025 0.716928 0.627586 2.18845 0.0069742 147 4 1 4.90496e-07 
-0.158568 -0.37465 -1.99366 0.0025 0.720991 0.63257 2.1934 0.0069349 148 4 1 4.9158e-07 
-0.155111 -0.368436 -1.99699 0.0025 0.725049 0.637561 2.19833 0.00689608 149 4 1 4.95581e-07 
-0.151672 -0.362246 -2.00631 0.0025 0.72911 0.642566 2.20324 0.00685767 150 4 1 4.9363e-07 
-0.148253 -0.356085 -2.01127 0.0025 0.733175 0.647587 2.20815 0.00681965 151 4 1 4.82639e-07 
-0.144852 -0.349974 -2.01252 0.0025 0.737239 0.652618 2.21304 0.00678206 152 4 1 4.87792e-07 
-0.141471 -0.343905 -2.02545 0.0025 0.741308 0.657666 2.21791 0.00674483 153 4 1 4.80125e-07 
-0.138108 -0.337918 -2.02139 0.0025 0.745381 0.66273 2.22278 0.00670798 154 4 1 4.96533e-07 
-0.134763 -0.332032 -2.04881 0.0025 0.749471 0.667829 2.22765 0.00667137 155 4 1 5.40767e-07 
-0.131436 -0.326168 -2.08719 0.0025 0.753612 0.672999 2.23256 0.00663472 156 4 1 5.3931e-07 
-0.128128 -0.320416 -2.10399 0.0025 0.757799 0.678241 2.23752 0.00659805 157 4 1 5.47722e-07 
-0.124838 -0.314843 -2.13699 0.0025 0.762036 0.683557 2.24251 0.00656137 158 4 1 6.08619e-07 
-0.121566 -0.309461 -2.20159 0.0025 0.766362 0.688997 2.24759 0.00652434 159 4 1 6.7847e-07 
-0.118314 -0.304273 -2.28311 0.0025 0.770819 0.694616 2.25281 0.00648661 160 4 1 7.48352e-07 
-0.11508 -0.299294 -2.38598 0.0025 0.775441 0.700454 2.25821 0.00644794 161 4 1 7.87853e-07 
-0.111866 -0.294578 -2.47158 0.0025 0.780234 0.706522 2.26378 0.00640833 162 4 1 8.01546e-07 
-0.108671 -0.290238 -2.55164 0.0025 0.785181 0.712801 2.26951 0.00636796 163 4 1 8.47783e-07 
-0.105498 -0.286206 -2.65207 0.0025 0.790287 0.719299 2.2754 0.00632682 164 4 1 8.62924e-07 
-0.102345 -0.282344 -2.72145 0.0025 0.795539 0.725999 2.28144 0.00628505 165 4 1 8.29288e-07 
-0.0992125 -0.278631 -2.76072 0.0025 0.800889 0.732842 2.28756 0.00624307 166 4 1 8.19603e-07 
-0.0961014 -0.274966 -2.80366 0.0025 0.806313 0.739801 2.29375 0.00620106 167 4 1 8.37869e-07 
-0.0930113 -0.271543 -2.8606 0.0025 0.811822 0.746888 2.3 0.00615898 168 4 1 9.16405e-07 
-0.0899423 -0.268451 -2.99814 0.0025 0.817452 0.754143 2.30637 0.00611657 169 4 1 7.81174e-07 
-0.0868947 -0.265423 -2.94695 0.0025 0.82307 0.761387 2.31271 0.00607482 170 4 1 1.13461e-07 
-0.0838674 -0.261668 -2.42979 0.0025 0.828172 0.767989 2.31844 0.0060374 171 4 1 -4.64206e-07 
-0.0808572 -0.256366 -1.86957 0.0025 0.832404 0.773507 2.32317 0.0060067 172 4 1 -1.43353e-07 
-0.0778607 -0.250329 -1.91441 0.0025 0.836165 0.778425 2.32734 0.00597968 173 4 1 5.55635e-07 
-0.0748775 -0.245113 -2.28707 0.0025 0.840051 0.783467 2.33166 0.00595202 174 4 1 -4.03151e-08 
-0.0719087 -0.239698 -1.63793 0.0025 0.843514 0.787938 2.33554 0.00592759 175 4 1 -1.73687e-06 
-0.0689499 -0.231189 0.0226398 0.0025 0.845181 0.790148 2.3374 0.00591589 176 4 1 -1.42211e-06 
-0.0659928 -0.220053 0.162329 0.0025 0.845514 0.790676 2.33771 0.00591356 177 4 1 1.07024e-06 
-0.0630364 -0.210979 -1.51308 0.0025 0.84684 0.792404 2.33913 0.0059043 178 4 1 1.47018e-06 
-0.0600885 -0.204819 -1.64366 0.0025 0.849308 0.79553 2.34192 0.00588714 179 4 1 -1.46332e-06 
-0.0571492 -0.195851 0.51997 0.0025 0.850308 0.796849 2.34308 0.00588022 180 3 1 -1.92653e-06 
-0.0542082 -0.183133 0.873717 0.0025 0.84956 0.795986 2.34218 0.0058854 181 5 1 1.11681e-06 
-0.0512638 -0.173009 -1.10886 0.0025 0.84989 0.796409 2.34249 0.00588312 182 4 1 1.67057e-06 
-0.0483251 -0.165905 -1.22448 0.0025 0.851626 0.798588 2.34447 0.00587112 183 4 1 -1.09323e-06 
-0.0453927 -0.156193 0.425422 0.0025 0.852335 0.799537 2.34529 0.00586624 184 3 1 -1.17844e-06 
-0.0424589 -0.144518 0.281668 0.0025 0.852 0.799164 2.34486 0.00586855 185 5 1 7.61778e-07 
-0.0395241 -0.134898 -0.642206 0.0025 0.852323 0.799561 2.34521 0.00586632 186 4 1 3.95572e-07 
-0.0365925 -0.125781 -0.2095 0.0025 0.852967 0.800379 2.34595 0.00586189 187 4 1 -5.64488e-07 
-0.0336622 -0.115521 0.114608 0.0025 0.853124 0.800609 2.34611 0.00586081 188 4 1 -2.6103e-08 
-0.0307317 -0.105256 -0.178538 0.0025 0.853254 0.800789 2.34625 0.00585992 189 4 1 2.78312e-07 
-0.0278023 -0.0952621 -0.267169 0.0025 0.853632 0.801274 2.34667 0.00585733 190 4 1 1.74228e-08 
-0.0248744 -0.0855629 -0.224998 0.0025 0.854025 0.801778 2.3471 0.00585463 191 4 1 -2.78432e-07 
-0.0219477 -0.0758842 0.138597 0.0025 0.854113 0.801898 2.34721 0.00585402 192 3 1 -3.31284e-07 
-0.0190204 -0.0649896 0.206328 0.0025 0.853901 0.801643 2.34697 0.00585548 193 5 1 2.57321e-07 
-0.0160922 -0.0550008 -0.237448 0.0025 0.853952 0.80171 2.34702 0.00585513 194 4 1 3.75951e-07 
-0.0131653 -0.045414 -0.26741 0.0025 0.854335 0.802197 2.34746 0.0058525 195 4 1 -1.40103e-07 
-0.0102397 -0.0352988 -0.0401781 0.0025 0.854586 0.80253 2.34775 0.00585079 196 4 1 -2.465e-07 
-0.00731447 -0.0248096 0.0400854 0.0025 0.854608 0.802562 2.34777 0.00585063 197 3 1 -1.52839e-07 
-0.00438907 -0.015233 0.148164 0.0025 0.854477 0.802397 2.34762 0.00585153 198 4 1 1.01885e-07 
-0.00146293 -0.00527915 -0.0712824 0.0025 0.854408 0.802311 2.34756 0.00585201 199 4 1 4.15098e-08 
0.00146293 0.00527915 0.0712824 0.0025 0.854408 0.802311 2.34756 0.00585201 200 4 1 4.15098e-08 
0.00438907 0.015233 -0.148164 0.0025 0.854477 0.802397 2.34762 0.00585153 201 4 1 1.01885e-07 
0.00731447 0.0248096 -0.0400854 0.0025 0.854608 0.802562 2.34777 0.00585063 202 3 1 -1.52839e-07 
0.0102397 0.0352988 0.0401781 0.0025 0.854586 0.80253 2.34775 0.00585079 203 4 1 -2.465e-07 
0.0131653 0.045414 0.26741 0.0025 0.854335 0.802197 2.34746 0.0058525 204 4 1 -1.40103e-07 
0.0160922 0.0550008 0.237448 0.0025 0.853952 0.80171 2.34702 0.00585513 205 4 1 3.75951e-07 
0.0190204 0.0649896 -0.206328 0.0025 0.853901 0.801643 2.34697 0.00585548 206 5 1 2.57321e-07 
0.0219477 0.0758842 -0.138597 0.0025 0.854113 0.801898 2.34721 0.00585402 207 3 1 -3.31284e-07 
0.0248744 0.0855629 0.224998 0.0025 0.854025 0.801778 2.3471 0.00585463 208 4 1 -2.78432e-07 
0.0278023 0.0952621 0.267169 0.0025 0.853632 0.801274 2.34667 0.00585733 209 4 1 1.74228e-08 
0.0307317 0.105256 0.178538 0.0025 0.853254 0.800789 2.34625 0.00585992 210 4 1 2.78312e-07 
