# Time [s]: 0.470683
# Columns: pos [m], vel [m/s], acc [m/s^2], mass [kg], dens [kg/m^3], pres [Pa], ene [J/kg], sml [m], id, neighbor, alpha, gradh, ...additional?
1.18541 -0.673079 -0.000438934 0.0025 0.511061 0.432739 2.15252 0.00978356 0 4 1 -0.000134223 
1.19019 -0.673078 -0.000305098 0.0025 0.53692 0.426202 1.95006 0.00931238 1 4 1 0.000179254 
1.19473 -0.673079 -0.000202263 0.0025 0.54825 0.430873 1.96852 0.00911992 2 3 1 -1.90585e-05 
1.19931 -0.67308 -0.000183949 0.0025 0.545986 0.42921 1.96466 0.00915774 3 5 1 3.48558e-06 
1.20389 -0.673081 -0.000226215 0.0025 0.546385 0.429366 1.9646 0.00915105 4 4 1 -1.38542e-07 
1.20847 -0.673082 -0.000293078 0.0025 0.546397 0.429337 1.96437 0.00915086 5 4 1 1.43922e-07 
1.21304 -0.673084 -0.000370838 0.0025 0.546421 0.429337 1.96431 0.00915045 6 4 1 -3.29128e-09 
1.21762 -0.673086 -0.000452183 0.0025 0.546435 0.429335 1.96425 0.00915021 7 4 1 8.46565e-09 
1.22219 -0.673089 -0.000529184 0.0025 0.546451 0.429336 1.9642 0.00914995 8 4 1 4.98345e-09 
1.22677 -0.673092 -0.000592485 0.0025 0.546465 0.429337 1.96416 0.00914972 9 4 1 5.65947e-09 
1.23134 -0.673095 -0.000632711 0.0025 0.546478 0.429339 1.96412 0.0091495 10 4 1 -2.11652e-09 
1.23592 -0.673098 -0.00064238 0.0025 0.546491 0.42934 1.96408 0.00914928 11 4 1 4.7721e-09 
1.24049 -0.673102 -0.00061756 0.0025 0.546503 0.429342 1.96404 0.00914908 12 4 1 2.80487e-09 
1.24506 -0.673105 -0.00055878 0.0025 0.546513 0.429343 1.96401 0.0091489 13 4 1 3.43817e-09 
1.24964 -0.673108 -0.000470954 0.0025 0.546523 0.429345 1.96398 0.00914875 14 4 1 1.91253e-09 
1.25421 -0.673111 -0.000362367 0.0025 0.546532 0.429346 1.96396 0.0091486 15 4 1 -1.84014e-09 
1.25879 -0.673113 -0.000243034 0.0025 0.54654 0.429347 1.96393 0.00914846 16 4 1 4.61972e-09 
1.26336 -0.673115 -0.00012292 0.0025 0.546547 0.429347 1.96391 0.00914834 17 4 1 1.20065e-09 
1.26794 -0.673116 -1.04389e-05 0.0025 0.546554 0.429348 1.96389 0.00914823 18 4 1 -1.45108e-09 
1.27251 -0.673117 8.84603e-05 0.0025 0.54656 0.429347 1.96386 0.00914813 19 4 1 2.48239e-09 
1.27708 -0.673118 0.000170571 0.0025 0.546565 0.429347 1.96384 0.00914805 20 4 1 1.00091e-09 
1.28166 -0.673118 0.00023517 0.0025 0.546569 0.429347 1.96383 0.00914797 21 4 1 1.07442e-09 
1.28623 -0.673118 0.000283433 0.0025 0.546573 0.429346 1.96381 0.0091479 22 4 1 9.89149e-10 
1.29081 -0.673118 0.000315775 0.0025 0.546577 0.429346 1.96379 0.00914785 23 4 1 -1.96472e-10 
1.29538 -0.673118 0.000340626 0.0025 0.54658 0.429345 1.96378 0.00914779 24 4 1 1.49039e-09 
1.29995 -0.673118 0.000357425 0.0025 0.546583 0.429344 1.96376 0.00914774 25 4 1 7.80031e-10 
1.30453 -0.673118 0.000364201 0.0025 0.546586 0.429343 1.96375 0.0091477 26 4 1 -2.92858e-10 
1.3091 -0.673118 0.000368202 0.0025 0.546588 0.429342 1.96374 0.00914766 27 4 1 1.31043e-09 
1.31368 -0.673119 0.000369097 0.0025 0.54659 0.429341 1.96372 0.00914762 28 4 1 9.6674e-10 
1.31825 -0.673119 0.000367549 0.0025 0.546592 0.42934 1.96371 0.00914759 29 4 1 -6.58965e-10 
1.32282 -0.673119 0.000364289 0.0025 0.546594 0.429339 1.9637 0.00914755 30 4 1 6.1403e-10 
1.3274 -0.67312 0.000360189 0.0025 0.546596 0.429338 1.96369 0.00914753 31 4 1 2.06963e-09 
1.33197 -0.673121 0.000356473 0.0025 0.546597 0.429337 1.96368 0.0091475 32 4 1 -7.65304e-10 
1.33654 -0.673122 0.00035486 0.0025 0.546599 0.429336 1.96367 0.00914748 33 4 1 -7.50376e-10 
1.34112 -0.673123 0.000357515 0.0025 0.5466 0.429335 1.96366 0.00914745 34 4 1 2.17762e-09 
1.34569 -0.673124 0.000366636 0.0025 0.546601 0.429334 1.96365 0.00914744 35 4 1 -1.67e-10 
1.35027 -0.673125 0.000383707 0.0025 0.546602 0.429333 1.96365 0.00914742 36 4 1 -8.53603e-10 
1.35484 -0.673127 0.000408737 0.0025 0.546603 0.429332 1.96364 0.0091474 37 4 1 1.43882e-09 
1.35941 -0.673128 0.00044008 0.0025 0.546604 0.429331 1.96363 0.00914739 38 4 1 1.00241e-10 
1.36399 -0.67313 0.000475229 0.0025 0.546604 0.42933 1.96362 0.00914738 39 4 1 -7.25421e-10 
1.36856 -0.673132 0.000512318 0.0025 0.546605 0.429329 1.96362 0.00914737 40 4 1 7.20717e-10 
1.37313 -0.673134 0.000551388 0.0025 0.546605 0.429328 1.96361 0.00914737 41 4 1 4.50657e-10 
1.37771 -0.673136 0.000594359 0.0025 0.546605 0.429326 1.9636 0.00914737 42 3 1 -6.20805e-10 
1.38228 -0.673138 0.000643405 0.0025 0.546605 0.429324 1.96359 0.00914737 43 4 1 -9.64691e-12 
1.38685 -0.67314 0.000698692 0.0025 0.546605 0.429323 1.96359 0.00914737 44 4 1 9.55376e-10 
1.39143 -0.673142 0.000757131 0.0025 0.546604 0.429321 1.96358 0.00914738 45 4 1 -3.83527e-10 
1.396 -0.673144 0.000813379 0.0025 0.546604 0.429319 1.96357 0.00914739 46 4 1 -7.24898e-10 
1.40058 -0.673147 0.000862802 0.0025 0.546603 0.429317 1.96357 0.00914741 47 4 1 6.03936e-10 
1.40515 -0.67315 0.000904657 0.0025 0.546602 0.429314 1.96356 0.00914742 48 4 1 3.0593e-10 
1.40972 -0.673153 0.000943344 0.0025 0.546601 0.429312 1.96355 0.00914744 49 4 1 -5.73054e-10 
1.4143 -0.673156 0.000986719 0.0025 0.546599 0.42931 1.96355 0.00914747 50 4 1 -2.68509e-10 
1.41887 -0.67316 0.00104231 0.0025 0.546598 0.429307 1.96354 0.00914749 51 4 1 6.43067e-10 
1.42344 -0.673164 0.0011135 0.0025 0.546596 0.429304 1.96353 0.00914752 52 4 1 -1.13941e-10 
1.42802 -0.673168 0.00119787 0.0025 0.546595 0.429301 1.96353 0.00914755 53 4 1 -8.90512e-10 
1.43259 -0.673173 0.00128842 0.0025 0.546593 0.429298 1.96352 0.00914758 54 4 1 -5.72527e-11 
1.43717 -0.673178 0.00137753 0.0025 0.54659 0.429294 1.96351 0.00914762 55 4 1 5.52222e-10 
1.44174 -0.673183 0.00146185 0.0025 0.546588 0.429291 1.9635 0.00914766 56 4 1 -4.67103e-10 
1.44631 -0.673189 0.00154587 0.0025 0.546585 0.429287 1.9635 0.00914771 57 4 1 -8.6148e-10 
1.45089 -0.673195 0.0016414 0.0025 0.546582 0.429283 1.96349 0.00914776 58 4 1 3.28593e-10 
1.45546 -0.673203 0.00176179 0.0025 0.546579 0.429278 1.96348 0.00914781 59 4 1 -1.24417e-11 
1.46004 -0.67321 0.00191319 0.0025 0.546575 0.429273 1.96347 0.00914787 60 4 1 -7.94602e-10 
1.46461 -0.673219 0.00208863 0.0025 0.546571 0.429268 1.96346 0.00914794 61 4 1 -6.6461e-10 
1.46918 -0.673228 0.00227099 0.0025 0.546567 0.429263 1.96345 0.00914801 62 4 1 -3.73571e-11 
1.47376 -0.673237 0.00244532 0.0025 0.546562 0.429257 1.96344 0.0091481 63 4 1 -3.79466e-10 
1.47833 -0.673248 0.00261305 0.0025 0.546556 0.42925 1.96343 0.00914819 64 4 1 -8.11921e-10 
1.48291 -0.67326 0.00279629 0.0025 0.54655 0.429243 1.96342 0.00914829 65 4 1 -4.69315e-10 
1.48748 -0.673272 0.00302578 0.0025 0.546544 0.429235 1.96341 0.00914839 66 4 1 -5.0043e-10 
1.49205 -0.673286 0.00331921 0.0025 0.546537 0.429227 1.96339 0.00914851 67 4 1 -8.94957e-10 
1.49663 -0.673302 0.00366674 0.0025 0.546529 0.429218 1.96338 0.00914864 68 4 1 -1.08763e-09 
-0.498797 -0.673318 0.00403811 0.0025 0.546521 0.429208 1.96336 0.00914878 69 4 1 -8.69143e-10 
-0.494223 -0.673336 0.00440882 0.0025 0.546511 0.429197 1.96335 0.00914894 70 4 1 -1.08045e-09 
-0.489648 -0.673356 0.00478546 0.0025 0.546501 0.429184 1.96333 0.00914912 71 4 1 -1.32386e-09 
-0.485074 -0.673378 0.00520754 0.0025 0.546489 0.429171 1.96331 0.00914931 72 4 1 -1.20952e-09 
-0.480499 -0.673403 0.00572302 0.0025 0.546477 0.429157 1.96329 0.00914952 73 4 1 -1.47146e-09 
-0.475924 -0.673431 0.00635801 0.0025 0.546463 0.429141 1.96327 0.00914976 74 4 1 -1.97115e-09 
-0.471349 -0.673461 0.00710622 0.0025 0.546447 0.429123 1.96324 0.00915002 75 4 1 -2.25258e-09 
-0.466774 -0.673494 0.00794232 0.0025 0.546429 0.429103 1.96322 0.00915032 76 4 1 -2.4332e-09 
-0.462199 -0.673531 0.00884292 0.0025 0.54641 0.429081 1.96319 0.00915065 77 4 1 -2.63651e-09 
-0.457624 -0.673572 0.00980165 0.0025 0.546388 0.429056 1.96315 0.00915101 78 4 1 -2.90899e-09 
-0.453048 -0.673618 0.0108377 0.0025 0.546363 0.429029 1.96311 0.00915143 79 4 1 -3.15752e-09 
-0.448472 -0.673669 0.0119957 0.0025 0.546336 0.428999 1.96307 0.00915188 80 4 1 -3.4631e-09 
-0.443896 -0.673727 0.0133304 0.0025 0.546306 0.428965 1.96303 0.00915239 81 4 1 -3.93351e-09 
-0.43932 -0.673791 0.0148776 0.0025 0.546272 0.428928 1.96298 0.00915295 82 4 1 -4.43324e-09 
-0.434743 -0.673861 0.0166208 0.0025 0.546235 0.428886 1.96292 0.00915357 83 4 1 -4.78699e-09 
-0.430166 -0.673939 0.0184611 0.0025 0.546193 0.428841 1.96286 0.00915427 84 4 1 -4.86766e-09 
-0.425589 -0.674024 0.0202344 0.0025 0.546148 0.42879 1.96279 0.00915503 85 4 1 -4.54023e-09 
-0.421011 -0.674116 0.0218312 0.0025 0.546098 0.428735 1.96272 0.00915586 86 4 1 -3.96874e-09 
-0.416433 -0.674217 0.0233199 0.0025 0.546045 0.428677 1.96264 0.00915675 87 4 1 -3.39034e-09 
-0.411855 -0.674326 0.0248168 0.0025 0.545989 0.428615 1.96256 0.00915769 88 4 1 -2.88709e-09 
-0.407275 -0.674439 0.026163 0.0025 0.545931 0.42855 1.96248 0.00915867 89 4 1 -1.80498e-09 
-0.402696 -0.674556 0.0269606 0.0025 0.54587 0.428484 1.96239 0.00915969 90 4 1 1.46163e-10 
-0.398116 -0.674673 0.0269746 0.0025 0.54581 0.428417 1.9623 0.0091607 91 4 1 2.32413e-09 
-0.393535 -0.674788 0.0261654 0.0025 0.545751 0.428353 1.96222 0.00916169 92 4 1 5.04584e-09 
-0.388954 -0.674897 0.0244956 0.0025 0.545697 0.428293 1.96214 0.0091626 93 4 1 7.95743e-09 
-0.384373 -0.674994 0.0219356 0.0025 0.545648 0.42824 1.96207 0.00916341 94 4 1 1.04627e-08 
-0.379791 -0.675074 0.0178844 0.0025 0.545609 0.428196 1.96201 0.00916408 95 4 1 1.51289e-08 
-0.375208 -0.675134 0.0115678 0.0025 0.545581 0.428166 1.96197 0.00916453 96 4 1 1.39566e-08 
-0.370626 -0.67517 0.00857897 0.0025 0.545566 0.42815 1.96195 0.00916479 97 5 1 2.36903e-08 
-0.366044 -0.675188 -0.00390078 0.0025 0.545571 0.428156 1.96195 0.00916472 98 4 1 5.07124e-08 
-0.361461 -0.675101 -0.0274688 0.0025 0.545617 0.428208 1.96202 0.00916393 99 4 1 7.92521e-08 
-0.35688 -0.674922 -0.0549515 0.0025 0.545731 0.428337 1.96218 0.00916202 100 4 1 1.78291e-07 
-0.352299 -0.67449 -0.1495 0.0025 0.545991 0.428628 1.96255 0.00915765 101 4 1 3.35644e-07 
-0.347722 -0.673504 -0.298517 0.0025 0.546516 0.429208 1.96331 0.00914886 102 4 1 4.22526e-07 
-0.343151 -0.671879 -0.440004 0.0025 0.547361 0.430137 1.96452 0.00913473 103 4 1 4.60106e-07 
-0.338587 -0.669669 -0.580841 0.0025 0.548533 0.431428 1.9662 0.00911523 104 4 1 5.59059e-07 
-0.334035 -0.666765 -0.75941 0.0025 0.55007 0.433126 1.9684 0.00908975 105 4 1 7.19258e-07 
-0.329498 -0.663026 -0.97704 0.0025 0.552044 0.435304 1.97123 0.00905725 106 4 1 8.43415e-07 
-0.324978 -0.658368 -1.18819 0.0025 0.554478 0.437991 1.9747 0.00901749 107 4 1 8.5745e-07 
-0.32048 -0.652944 -1.34631 0.0025 0.557309 0.44112 1.97873 0.00897168 108 4 1 7.7861e-07 
-0.316006 -0.647023 -1.43856 0.0025 0.560418 0.444564 1.98314 0.00892192 109 4 1 6.82122e-07 
-0.311558 -0.640861 -1.48653 0.0025 0.563691 0.448201 1.98776 0.0088701 110 4 1 6.53301e-07 
-0.307136 -0.634548 -1.53706 0.0025 0.567081 0.451979 1.99253 0.00881709 111 4 1 6.80495e-07 
-0.302741 -0.628055 -1.58972 0.0025 0.570584 0.455893 1.99745 0.00876295 112 4 1 7.41756e-07 
-0.298373 -0.621333 -1.66497 0.0025 0.57422 0.459967 2.00253 0.00870747 113 4 1 8.02064e-07 
-0.294033 -0.614371 -1.73807 0.0025 0.578005 0.464217 2.0078 0.00865045 114 4 1 8.26846e-07 
-0.289722 -0.60718 -1.80479 0.0025 0.581929 0.468633 2.01324 0.00859212 115 4 1 8.09436e-07 
-0.285441 -0.599827 -1.84351 0.0025 0.585956 0.473178 2.0188 0.00853306 116 4 1 7.70778e-07 
-0.281189 -0.592413 -1.86902 0.0025 0.590045 0.477805 2.02443 0.00847394 117 4 1 7.29001e-07 
-0.276967 -0.584992 -1.87588 0.0025 0.594159 0.482474 2.03006 0.00841526 118 4 1 6.80385e-07 
-0.272774 -0.577629 -1.87128 0.0025 0.598267 0.48715 2.03566 0.00835747 119 4 1 6.3794e-07 
-0.268609 -0.57036 -1.85832 0.0025 0.602347 0.491806 2.0412 0.00830087 120 4 1 5.9741e-07 
-0.264473 -0.563214 -1.8376 0.0025 0.606382 0.496424 2.04666 0.00824563 121 4 1 5.68271e-07 
-0.260364 -0.556205 -1.81809 0.0025 0.610367 0.500998 2.05203 0.0081918 122 4 1 5.67313e-07 
-0.256281 -0.5493 -1.81345 0.0025 0.614314 0.50554 2.05733 0.00813916 123 4 1 5.6321e-07 
-0.252224 -0.54246 -1.80502 0.0025 0.618232 0.510059 2.06257 0.00808757 124 4 1 5.2464e-07 
-0.248193 -0.53574 -1.77953 0.0025 0.622108 0.514541 2.06773 0.00803719 125 4 1 5.1267e-07 
-0.244187 -0.529132 -1.77364 0.0025 0.625942 0.518987 2.07282 0.00798796 126 4 1 5.21625e-07 
-0.240205 -0.522593 -1.76972 0.0025 0.629753 0.523416 2.07786 0.00793962 127 4 1 5.02472e-07 
-0.236248 -0.516117 -1.75699 0.0025 0.633537 0.527823 2.08284 0.0078922 128 4 1 4.82421e-07 
-0.232313 -0.50975 -1.74438 0.0025 0.637288 0.532204 2.08776 0.00784575 129 4 1 4.89914e-07 
-0.228402 -0.503429 -1.74764 0.0025 0.64102 0.536573 2.09264 0.00780007 130 4 1 4.96415e-07 
-0.224513 -0.49715 -1.74838 0.0025 0.644745 0.540943 2.0975 0.00775501 131 4 1 4.83358e-07 
-0.220647 -0.490924 -1.74411 0.0025 0.648459 0.54531 2.10232 0.00771059 132 4 1 4.81482e-07 
-0.216802 -0.484744 -1.74719 0.0025 0.652165 0.549679 2.10712 0.00766677 133 4 1 4.94219e-07 
-0.21298 -0.47859 -1.75725 0.0025 0.655877 0.554065 2.11191 0.00762338 134 4 1 5.13718e-07 
-0.209179 -0.472407 -1.77805 0.0025 0.659611 0.558486 2.11671 0.00758023 135 4 1 5.18091e-07 
-0.205399 -0.466223 -1.79012 0.0025 0.663369 0.562946 2.12153 0.00753728 136 4 1 5.1821e-07 
-0.201642 -0.46002 -1.80758 0.0025 0.667151 0.567444 2.12636 0.00749455 137 4 1 5.25377e-07 
-0.197905 -0.453799 -1.82375 0.0025 0.670961 0.571986 2.1312 0.007452 138 4 1 5.33089e-07 
-0.194189 -0.447571 -1.8444 0.0025 0.674802 0.576576 2.13607 0.00740958 139 4 1 5.66235e-07 
-0.190495 -0.441262 -1.8874 0.0025 0.678695 0.581238 2.14099 0.00736708 140 4 1 5.59101e-07 
-0.186822 -0.434921 -1.89716 0.0025 0.682629 0.585959 2.14595 0.00732462 141 4 1 5.19973e-07 
-0.183171 -0.428596 -1.89927 0.0025 0.686574 0.590705 2.1509 0.00728253 142 4 1 5.29922e-07 
-0.17954 -0.422298 -1.92047 0.0025 0.690536 0.595483 2.15586 0.00724075 143 4 1 5.43952e-07 
-0.17593 -0.415951 -1.93877 0.0025 0.694524 0.600303 2.16083 0.00719917 144 4 1 5.26388e-07 
-0.17234 -0.409626 -1.94307 0.0025 0.698527 0.605152 2.1658 0.00715792 145 4 1 5.11856e-07 
-0.168772 -0.40332 -1.94899 0.0025 0.702533 0.610016 2.17076 0.0071171 146 4 1 5.07414e-07 
-0.165223 -0.397057 -1.95392 0.0025 0.706542 0.614895 2.17571 0.00707672 147 4 1 5.06017e-07 
-0.161695 -0.390812 -1.96255 0.0025 0.710556 0.61979 2.18064 0.00703675 148 4 1 5.00616e-07 
-0.158187 -0.384608 -1.96588 0.0025 0.714572 0.6247 2.18556 0.00699719 149 4 1 4.93808e-07 
-0.154698 -0.378453 -1.97037 0.0025 0.71859 0.629623 2.19047 0.00695807 150 4 1 4.98061e-07 
-0.151228 -0.372367 -1.98013 0.0025 0.722614 0.634566 2.19537 0.00691932 151 4 1 5.10758e-07 
-0.147778 -0.36636 -1.99688 0.0025 0.726658 0.639543 2.20027 0.00688082 152 4 1 5.33047e-07 
-0.144348 -0.360412 -2.02466 0.0025 0.730736 0.644574 2.20521 0.00684242 153 4 1 5.44867e-07 
-0.140936 -0.354561 -2.04598 0.0025 0.734857 0.64967 2.21017 0.00680404 154 4 1 5.7904e-07 
-0.137543 -0.348857 -2.09552 0.0025 0.739042 0.654857 2.2152 0.00676551 155 4 1 6.26393e-07 
-0.13417 -0.343306 -2.14857 0.0025 0.743319 0.660169 2.22031 0.00672659 156 4 1 6.54391e-07 
-0.130817 -0.338017 -2.20192 0.0025 0.747698 0.665622 2.22554 0.00668719 157 4 1 7.29237e-07 
-0.127483 -0.332975 -2.30003 0.0025 0.75222 0.671266 2.23091 0.006647 158 4 1 8.21914e-07 
-0.12417 -0.32818 -2.41288 0.0025 0.756929 0.677158 2.23649 0.00660564 159 4 1 8.59029e-07 
-0.120877 -0.323712 -2.50719 0.0025 0.761826 0.683298 2.24226 0.00656318 160 4 1 8.67086e-07 
-0.117606 -0.319591 -2.58897 0.0025 0.766882 0.689653 2.2482 0.00651991 161 4 1 8.56606e-07 
-0.114357 -0.315698 -2.64415 0.0025 0.772063 0.696183 2.25427 0.00647616 162 4 1 8.38133e-07 
-0.11113 -0.311939 -2.68421 0.0025 0.777335 0.702848 2.26041 0.00643224 163 4 1 8.71198e-07 
-0.107925 -0.308249 -2.75454 0.0025 0.782709 0.709664 2.26665 0.00638807 164 4 1 9.64026e-07 
-0.104742 -0.304791 -2.88188 0.0025 0.788241 0.716694 2.27304 0.00634324 165 4 1 9.90267e-07 
-0.101582 -0.301802 -2.98641 0.0025 0.793916 0.723916 2.27958 0.0062979 166 4 1 6.8146e-07 
-0.0984441 -0.2988 -2.82664 0.0025 0.799467 0.730989 2.28595 0.00625417 167 4 1 -8.0416e-08 
-0.0953275 -0.294726 -2.21608 0.0025 0.804357 0.737251 2.29154 0.00621615 168 4 1 -4.40697e-07 
-0.0922279 -0.289158 -1.82172 0.0025 0.808432 0.742512 2.29616 0.00618481 169 4 1 2.31629e-07 
-0.0891427 -0.283397 -2.14886 0.0025 0.812338 0.747548 2.30058 0.00615507 170 4 1 6.11993e-07 
-0.0860728 -0.278522 -2.26083 0.0025 0.816363 0.752689 2.30515 0.00612473 171 4 1 -7.02123e-07 
-0.0830179 -0.272434 -1.09141 0.0025 0.819415 0.756598 2.30863 0.00610191 172 4 1 -1.95876e-06 
-0.0799709 -0.262681 0.24969 0.0025 0.820545 0.758122 2.30989 0.00609351 173 4 1 -6.34501e-07 
-0.0769244 -0.251826 -0.391735 0.0025 0.82111 0.758927 2.31046 0.00608932 174 4 1 1.65708e-06 
-0.0738816 -0.244163 -1.90113 0.0025 0.823094 0.761439 2.31269 0.00607464 175 4 1 5.68851e-07 
-0.0708497 -0.23757 -0.986792 0.0025 0.825391 0.764322 2.31535 0.00605773 176 4 1 -2.17848e-06 
-0.0678238 -0.226785 0.983505 0.0025 0.825631 0.7647 2.31562 0.00605597 177 3 1 -9.91083e-07 
-0.0647938 -0.214192 0.184845 0.0025 0.825031 0.764019 2.31486 0.00606038 178 5 1 1.8757e-06 
-0.0617634 -0.205602 -1.51019 0.0025 0.826115 0.76536 2.31607 0.00605243 179 4 1 7.25151e-07 
-0.0587413 -0.198205 -0.623326 0.0025 0.827747 0.767401 2.31798 0.00604049 180 4 1 -1.63501e-06 
-0.055723 -0.187149 0.663974 0.0025 0.827895 0.767655 2.31814 0.00603942 181 3 1 -4.13132e-07 
-0.0527019 -0.175744 -0.183569 0.0025 0.8277 0.767444 2.31786 0.00604084 182 5 1 1.05798e-06 
-0.0496821 -0.166762 -0.724741 0.0025 0.828406 0.768309 2.31867 0.00603569 183 4 1 -1.25447e-07 
-0.0466662 -0.157208 0.0222847 0.0025 0.82898 0.769046 2.31934 0.00603151 184 4 1 -6.18128e-07 
-0.0436506 -0.146484 0.0743133 0.0025 0.82902 0.769132 2.31937 0.00603121 185 4 1 2.4079e-07 
-0.040635 -0.136456 -0.30229 0.0025 0.829269 0.769451 2.31964 0.00602941 186 4 1 2.766e-07 
-0.0376212 -0.126622 -0.290866 0.0025 0.829761 0.770076 2.3202 0.00602583 187 4 1 -1.12823e-07 
-0.0346092 -0.11673 -0.1646 0.0025 0.830144 0.770566 2.32063 0.00602305 188 4 1 -3.18242e-07 
-0.0315981 -0.106504 0.147105 0.0025 0.8302 0.770646 2.32069 0.00602264 189 3 1 -2.26319e-07 
-0.0285865 -0.0957177 0.110136 0.0025 0.830062 0.770489 2.32052 0.00602365 190 5 1 3.84502e-07 
-0.0255745 -0.08589 -0.377229 0.0025 0.830287 0.770769 2.32077 0.00602201 191 4 1 1.84403e-07 
-0.0225645 -0.0763952 -0.0987125 0.0025 0.830664 0.771246 2.32121 0.00601928 192 4 1 -2.48516e-07 
-0.0195552 -0.0658521 -0.0497963 0.0025 0.830818 0.771457 2.32139 0.00601816 193 4 1 -9.49942e-08 
-0.0165463 -0.0555781 -0.000800627 0.0025 0.830887 0.771547 2.32146 0.00601767 194 4 1 1.34226e-08 
-0.0135375 -0.0456966 -0.0643223 0.0025 0.83094 0.771615 2.32153 0.00601728 195 3 1 -8.20027e-08 
-0.0105291 -0.0354868 0.113515 0.0025 0.830911 0.771584 2.3215 0.00601749 196 4 1 -1.39605e-08 
-0.00752006 -0.0251699 -0.053661 0.0025 0.830887 0.771562 2.32148 0.00601766 197 5 1 1.85474e-07 
-0.0045114 -0.0152986 -0.13998 0.0025 0.831046 0.771763 2.32166 0.00601652 198 4 1 9.1075e-08 
-0.00150354 -0.00541108 -0.15401 0.0025 0.831263 0.772039 2.32192 0.00601494 199 3 1 -2.40994e-07 
0.00150354 0.00541108 0.15401 0.0025 0.831263 0.772039 2.32192 0.00601494 200 3 1 -2.40994e-07 
0.0045114 0.0152986 0.13998 0.0025 0.831046 0.771763 2.32166 0.00601652 201 4 1 9.1075e-08 
0.00752006 0.0251699 0.053661 0.0025 0.830887 0.771562 2.32148 0.00601766 202 5 1 1.85474e-07 
0.0105291 0.0354868 -0.113515 0.0025 0.830911 0.771584 2.3215 0.00601749 203 4 1 -1.39605e-08 
0.0135375 0.0456966 0.0643223 0.0025 0.83094 0.771615 2.32153 0.00601728 204 3 1 -8.20027e-08 
0.0165463 0.0555781 0.000800627 0.0025 0.830887 0.771547 2.32146 0.00601767 205 4 1 1.34226e-08 
0.0195552 0.0658521 0.0497963 0.0025 0.830818 0.771457 2.32139 0.00601816 206 4 1 -9.49942e-08 
0.0225645 0.0763952 0.0987125 0.0025 0.830664 0.771246 2.32121 0.00601928 207 4 1 -2.48516e-07 
0.0255745 0.08589 0.377229 0.0025 0.830287 0.770769 2.32077 0.00602201 208 4 1 1.84403e-07 
0.0285865 0.0957177 -0.110136 0.0025 0.830062 0.770489 2.32052 0.00602365 209 5 1 3.84502e-07 
0.0315981 0.106504 -0.147105 0.0025 0.8302 0.770646 2.32069 0.00602264 210 3 1 -2.26319e-07 
