# Time [s]: 0.468455
# Columns: pos [m], vel [m/s], acc [m/s^2], mass [kg], dens [kg/m^3], pres [Pa], ene [J/kg], sml [m], id, neighbor, alpha, gradh, ...additional?
1.18691 -0.673078 -0.000313855 0.0025 0.511061 0.432739 2.15252 0.00978357 0 4 1 -0.000134224 
1.19169 -0.673078 -0.000181016 0.0025 0.53692 0.426202 1.95006 0.00931238 1 4 1 0.000179254 
1.19623 -0.673078 -0.000130344 0.0025 0.54825 0.430873 1.96852 0.00911992 2 3 1 -1.90585e-05 
1.20081 -0.673079 -0.000144596 0.0025 0.545986 0.429209 1.96466 0.00915774 3 5 1 3.48562e-06 
1.20539 -0.67308 -0.000190571 0.0025 0.546385 0.429365 1.9646 0.00915106 4 4 1 -1.3855e-07 
1.20997 -0.673082 -0.000252652 0.0025 0.546397 0.429336 1.96437 0.00915086 5 4 1 1.43908e-07 
1.21454 -0.673083 -0.0003261 0.0025 0.54642 0.429336 1.96431 0.00915046 6 4 1 -3.30139e-09 
1.21912 -0.673085 -0.00040667 0.0025 0.546435 0.429335 1.96425 0.00915022 7 4 1 8.46487e-09 
1.22369 -0.673088 -0.000487686 0.0025 0.54645 0.429335 1.9642 0.00914996 8 4 1 4.99493e-09 
1.22827 -0.67309 -0.000560172 0.0025 0.546464 0.429336 1.96416 0.00914973 9 4 1 5.68412e-09 
1.23284 -0.673093 -0.000614213 0.0025 0.546477 0.429338 1.96412 0.00914951 10 4 1 -2.08015e-09 
1.23742 -0.673097 -0.000640843 0.0025 0.54649 0.429339 1.96408 0.0091493 11 4 1 4.81637e-09 
1.24199 -0.6731 -0.000633945 0.0025 0.546502 0.429341 1.96404 0.0091491 12 4 1 2.85147e-09 
1.24656 -0.673104 -0.000591627 0.0025 0.546513 0.429342 1.96401 0.00914892 13 4 1 3.48099e-09 
1.25114 -0.673107 -0.000516685 0.0025 0.546522 0.429344 1.96398 0.00914876 14 4 1 1.94621e-09 
1.25571 -0.67311 -0.000416019 0.0025 0.546531 0.429345 1.96396 0.00914861 15 4 1 -1.81913e-09 
1.26029 -0.673112 -0.00029921 0.0025 0.54654 0.429346 1.96393 0.00914847 16 4 1 4.62687e-09 
1.26486 -0.673115 -0.000176688 0.0025 0.546547 0.429347 1.96391 0.00914835 17 4 1 1.19502e-09 
1.26944 -0.673116 -5.79871e-05 0.0025 0.546553 0.429347 1.96389 0.00914824 18 4 1 -1.46674e-09 
1.27401 -0.673117 4.95213e-05 0.0025 0.546559 0.429347 1.96386 0.00914814 19 4 1 2.46026e-09 
1.27858 -0.673118 0.000141225 0.0025 0.546565 0.429347 1.96384 0.00914805 20 4 1 9.75918e-10 
1.28316 -0.673119 0.000215242 0.0025 0.546569 0.429347 1.96383 0.00914797 21 4 1 1.04957e-09 
1.28773 -0.673119 0.000271952 0.0025 0.546573 0.429346 1.96381 0.00914791 22 4 1 9.66575e-10 
1.29231 -0.673119 0.000313288 0.0025 0.546577 0.429346 1.96379 0.00914785 23 4 1 -2.15627e-10 
1.29688 -0.673119 0.000342005 0.0025 0.54658 0.429345 1.96378 0.00914779 24 4 1 1.47494e-09 
1.30145 -0.673119 0.000361026 0.0025 0.546583 0.429344 1.96376 0.00914774 25 4 1 7.67909e-10 
1.30603 -0.673119 0.000372953 0.0025 0.546586 0.429343 1.96375 0.0091477 26 4 1 -3.02375e-10 
1.3106 -0.673119 0.000379807 0.0025 0.546588 0.429342 1.96374 0.00914766 27 4 1 1.30273e-09 
1.31518 -0.673119 0.000382995 0.0025 0.54659 0.429341 1.96372 0.00914762 28 4 1 9.60247e-10 
1.31975 -0.67312 0.000383456 0.0025 0.546592 0.42934 1.96371 0.00914759 29 4 1 -6.6456e-10 
1.32432 -0.67312 0.000381908 0.0025 0.546594 0.429339 1.9637 0.00914756 30 4 1 6.09357e-10 
1.3289 -0.673121 0.000379093 0.0025 0.546596 0.429338 1.96369 0.00914753 31 4 1 2.06622e-09 
1.33347 -0.673121 0.000376004 0.0025 0.546597 0.429337 1.96368 0.00914751 32 4 1 -7.66882e-10 
1.33804 -0.673122 0.000374081 0.0025 0.546598 0.429336 1.96367 0.00914748 33 4 1 -7.49474e-10 
1.34262 -0.673123 0.000375303 0.0025 0.5466 0.429335 1.96366 0.00914746 34 4 1 2.18133e-09 
1.34719 -0.673125 0.000381998 0.0025 0.546601 0.429334 1.96365 0.00914744 35 4 1 -1.60971e-10 
1.35177 -0.673126 0.000396235 0.0025 0.546602 0.429333 1.96365 0.00914743 36 4 1 -8.46774e-10 
1.35634 -0.673128 0.000418946 0.0025 0.546603 0.429332 1.96364 0.00914741 37 4 1 1.44428e-09 
1.36091 -0.673129 0.000449292 0.0025 0.546603 0.429331 1.96363 0.0091474 38 4 1 1.02573e-10 
1.36549 -0.673131 0.000484911 0.0025 0.546604 0.42933 1.96362 0.00914739 39 4 1 -7.26402e-10 
1.37006 -0.673133 0.000523216 0.0025 0.546604 0.429328 1.96362 0.00914738 40 4 1 7.18113e-10 
1.37463 -0.673135 0.000563074 0.0025 0.546605 0.429327 1.96361 0.00914738 41 3 1 4.4893e-10 
1.37921 -0.673137 0.000605667 0.0025 0.546605 0.429325 1.9636 0.00914738 42 4 1 -6.20321e-10 
1.38378 -0.673139 0.000653632 0.0025 0.546605 0.429324 1.96359 0.00914738 43 4 1 -8.2834e-12 
1.38835 -0.673141 0.00070875 0.0025 0.546604 0.429322 1.96359 0.00914738 44 4 1 9.53908e-10 
1.39293 -0.673144 0.000769743 0.0025 0.546604 0.42932 1.96358 0.00914739 45 4 1 -3.91659e-10 
1.3975 -0.673146 0.000831935 0.0025 0.546603 0.429318 1.96357 0.00914741 46 4 1 -7.40773e-10 
1.40208 -0.673149 0.000889468 0.0025 0.546602 0.429316 1.96357 0.00914742 47 4 1 5.83452e-10 
1.40665 -0.673152 0.000938936 0.0025 0.546601 0.429314 1.96356 0.00914744 48 4 1 2.86978e-10 
1.41122 -0.673155 0.000982112 0.0025 0.5466 0.429311 1.96355 0.00914746 49 4 1 -5.84674e-10 
1.4158 -0.673158 0.00102583 0.0025 0.546599 0.429309 1.96355 0.00914748 50 4 1 -2.70781e-10 
1.42037 -0.673162 0.00107889 0.0025 0.546597 0.429306 1.96354 0.00914751 51 4 1 6.46968e-10 
1.42494 -0.673166 0.00114766 0.0025 0.546595 0.429303 1.96353 0.00914754 52 4 1 -1.10799e-10 
1.42952 -0.673171 0.00123287 0.0025 0.546593 0.4293 1.96352 0.00914757 53 4 1 -8.9535e-10 
1.43409 -0.673175 0.00132926 0.0025 0.546591 0.429296 1.96352 0.0091476 54 4 1 -7.37631e-11 
1.43867 -0.673181 0.00142843 0.0025 0.546589 0.429293 1.96351 0.00914764 55 4 1 5.26353e-10 
1.44324 -0.673186 0.00152368 0.0025 0.546586 0.429289 1.9635 0.00914769 56 4 1 -4.94274e-10 
1.44781 -0.673192 0.001615 0.0025 0.546583 0.429285 1.96349 0.00914774 57 4 1 -8.79928e-10 
1.45239 -0.673199 0.00171126 0.0025 0.54658 0.429281 1.96348 0.00914779 58 4 1 3.2447e-10 
1.45696 -0.673207 0.00182719 0.0025 0.546577 0.429276 1.96348 0.00914785 59 4 1 -6.6742e-12 
1.46154 -0.673215 0.00197508 0.0025 0.546573 0.429271 1.96347 0.00914791 60 4 1 -7.93437e-10 
1.46611 -0.673223 0.00215565 0.0025 0.546569 0.429266 1.96346 0.00914798 61 4 1 -6.8452e-10 
1.47068 -0.673233 0.0023553 0.0025 0.546564 0.42926 1.96345 0.00914806 62 4 1 -8.42939e-11 
1.47526 -0.673243 0.00255434 0.0025 0.546559 0.429254 1.96344 0.00914814 63 4 1 -4.41285e-10 
1.47983 -0.673254 0.002743 0.0025 0.546553 0.429247 1.96343 0.00914824 64 4 1 -8.64127e-10 
1.48441 -0.673266 0.00293377 0.0025 0.546547 0.429239 1.96341 0.00914834 65 4 1 -4.93131e-10 
1.48898 -0.673279 0.00315817 0.0025 0.54654 0.429231 1.9634 0.00914845 66 4 1 -5.00494e-10 
1.49355 -0.673294 0.00344676 0.0025 0.546533 0.429222 1.96339 0.00914858 67 4 1 -9.00715e-10 
1.49813 -0.67331 0.00380613 0.0025 0.546525 0.429213 1.96337 0.00914871 68 4 1 -1.1334e-09 
-0.497297 -0.673327 0.00421265 0.0025 0.546516 0.429202 1.96336 0.00914886 69 4 1 -9.6634e-10 
-0.492723 -0.673346 0.00463177 0.0025 0.546506 0.429191 1.96334 0.00914903 70 4 1 -1.20553e-09 
-0.488148 -0.673367 0.00505031 0.0025 0.546495 0.429178 1.96332 0.00914921 71 4 1 -1.43536e-09 
-0.483574 -0.67339 0.00549472 0.0025 0.546483 0.429164 1.9633 0.00914942 72 4 1 -1.28217e-09 
-0.478999 -0.673416 0.00601786 0.0025 0.546469 0.429149 1.96328 0.00914964 73 4 1 -1.51758e-09 
-0.474424 -0.673445 0.00666439 0.0025 0.546455 0.429132 1.96326 0.00914989 74 4 1 -2.03027e-09 
-0.469849 -0.673477 0.00744509 0.0025 0.546438 0.429114 1.96323 0.00915017 75 4 1 -2.36126e-09 
-0.465274 -0.673512 0.00833994 0.0025 0.54642 0.429093 1.9632 0.00915048 76 4 1 -2.60362e-09 
-0.460698 -0.673551 0.00932002 0.0025 0.546399 0.429069 1.96317 0.00915082 77 4 1 -2.85514e-09 
-0.456123 -0.673594 0.0103667 0.0025 0.546376 0.429043 1.96313 0.00915121 78 4 1 -3.1438e-09 
-0.451547 -0.673642 0.0114831 0.0025 0.54635 0.429014 1.9631 0.00915165 79 4 1 -3.36715e-09 
-0.446971 -0.673697 0.0126992 0.0025 0.546321 0.428982 1.96305 0.00915213 80 4 1 -3.61253e-09 
-0.442395 -0.673757 0.0140656 0.0025 0.546289 0.428947 1.963 0.00915266 81 4 1 -4.01204e-09 
-0.437819 -0.673825 0.0156282 0.0025 0.546254 0.428908 1.96295 0.00915326 82 4 1 -4.46485e-09 
-0.433242 -0.673899 0.0173962 0.0025 0.546215 0.428864 1.96289 0.00915391 83 4 1 -4.83031e-09 
-0.428665 -0.673981 0.0193054 0.0025 0.546171 0.428816 1.96283 0.00915464 84 4 1 -4.98104e-09 
-0.424087 -0.67407 0.0211923 0.0025 0.546124 0.428764 1.96276 0.00915544 85 4 1 -4.67723e-09 
-0.419509 -0.674166 0.0228532 0.0025 0.546072 0.428707 1.96268 0.0091563 86 4 1 -3.90282e-09 
-0.414931 -0.67427 0.024226 0.0025 0.546017 0.428646 1.9626 0.00915723 87 4 1 -2.89879e-09 
-0.410352 -0.674382 0.0254555 0.0025 0.545959 0.428582 1.96252 0.00915819 88 4 1 -2.07396e-09 
-0.405773 -0.674498 0.0265659 0.0025 0.5459 0.428517 1.96243 0.00915919 89 4 1 -9.70989e-10 
-0.401193 -0.674616 0.0271748 0.0025 0.545839 0.42845 1.96234 0.00916021 90 4 1 1.00921e-09 
-0.396613 -0.674733 0.0268701 0.0025 0.545779 0.428384 1.96226 0.00916122 91 4 1 3.46568e-09 
-0.392032 -0.674846 0.0255802 0.0025 0.545722 0.428321 1.96217 0.00916218 92 4 1 6.54133e-09 
-0.38745 -0.67495 0.0232508 0.0025 0.54567 0.428264 1.9621 0.00916305 93 4 1 9.73058e-09 
-0.382869 -0.675041 0.0200432 0.0025 0.545626 0.428215 1.96203 0.00916379 94 4 1 1.20973e-08 
-0.378287 -0.675112 0.0159275 0.0025 0.545592 0.428178 1.96199 0.00916437 95 4 1 1.51401e-08 
-0.373704 -0.675156 0.00812317 0.0025 0.54557 0.428154 1.96195 0.00916473 96 4 1 1.58094e-08 
-0.369122 -0.67519 0.00762134 0.0025 0.545562 0.428146 1.96194 0.00916486 97 5 1 3.80688e-08 
-0.364539 -0.675161 -0.0188964 0.0025 0.545585 0.428172 1.96197 0.00916447 98 4 1 6.16334e-08 
-0.359957 -0.675032 -0.0354434 0.0025 0.545661 0.428257 1.96208 0.0091632 99 4 1 1.15924e-07 
-0.355376 -0.674761 -0.092838 0.0025 0.545833 0.428452 1.96233 0.0091603 100 4 1 2.63884e-07 
-0.350797 -0.674074 -0.225292 0.0025 0.546218 0.428879 1.96288 0.00915386 101 4 1 3.93705e-07 
-0.346222 -0.672754 -0.373859 0.0025 0.546907 0.429637 1.96387 0.00914232 102 4 1 4.36077e-07 
-0.341655 -0.670825 -0.507274 0.0025 0.547917 0.430749 1.96532 0.00912548 103 4 1 5.03417e-07 
-0.337097 -0.668278 -0.669541 0.0025 0.549269 0.432241 1.96726 0.00910301 104 4 1 6.45481e-07 
-0.332552 -0.664951 -0.870557 0.0025 0.551029 0.434184 1.96977 0.00907393 105 4 1 8.02111e-07 
-0.328023 -0.660715 -1.09726 0.0025 0.553252 0.436638 1.97295 0.00903747 106 4 1 8.74038e-07 
-0.323514 -0.655611 -1.28425 0.0025 0.555917 0.439581 1.97675 0.00899414 107 4 1 8.25425e-07 
-0.319029 -0.649874 -1.40645 0.0025 0.55892 0.442903 1.98101 0.00894583 108 4 1 7.24844e-07 
-0.314568 -0.643782 -1.46935 0.0025 0.562134 0.44647 1.98556 0.00889468 109 4 1 6.59072e-07 
-0.310134 -0.637518 -1.51485 0.0025 0.565479 0.450193 1.99028 0.00884206 110 4 1 6.72679e-07 
-0.305726 -0.631085 -1.57196 0.0025 0.568939 0.454055 1.99514 0.00878828 111 4 1 7.24576e-07 
-0.301346 -0.624462 -1.63741 0.0025 0.572529 0.458071 2.00017 0.00873318 112 4 1 7.81715e-07 
-0.296993 -0.617571 -1.71199 0.0025 0.576262 0.462259 2.00538 0.00867661 113 4 1 8.2695e-07 
-0.292669 -0.610446 -1.78482 0.0025 0.580143 0.466622 2.01077 0.00861857 114 4 1 8.32925e-07 
-0.288374 -0.603118 -1.83948 0.0025 0.584148 0.471137 2.01631 0.00855947 115 4 1 7.95509e-07 
-0.284109 -0.595693 -1.86693 0.0025 0.588234 0.475755 2.02194 0.00850002 116 4 1 7.53464e-07 
-0.279874 -0.588231 -1.88415 0.0025 0.59236 0.480431 2.0276 0.00844082 117 4 1 7.09399e-07 
-0.275668 -0.580805 -1.88306 0.0025 0.596493 0.48513 2.03325 0.00838233 118 4 1 6.6086e-07 
-0.271492 -0.573458 -1.87338 0.0025 0.600606 0.489818 2.03884 0.00832493 119 4 1 6.18679e-07 
-0.267343 -0.566223 -1.85474 0.0025 0.60468 0.494474 2.04436 0.00826884 120 4 1 5.82587e-07 
-0.263223 -0.559125 -1.83312 0.0025 0.608703 0.499086 2.04979 0.00821419 121 4 1 5.70976e-07 
-0.259129 -0.552151 -1.82239 0.0025 0.612681 0.50366 2.05514 0.00816085 122 4 1 5.7504e-07 
-0.255062 -0.545252 -1.81982 0.0025 0.616631 0.508211 2.06043 0.00810858 123 4 1 5.45936e-07 
-0.25102 -0.538446 -1.79751 0.0025 0.620543 0.51273 2.06565 0.00805745 124 4 1 5.155e-07 
-0.247004 -0.531775 -1.78109 0.0025 0.624409 0.517208 2.07078 0.00800757 125 4 1 5.22437e-07 
-0.243013 -0.525174 -1.77933 0.0025 0.628244 0.521661 2.07586 0.00795869 126 4 1 5.20558e-07 
-0.239045 -0.518645 -1.77272 0.0025 0.632058 0.526099 2.08089 0.00791067 127 4 1 4.90046e-07 
-0.235102 -0.512207 -1.7531 0.0025 0.635837 0.530509 2.08586 0.00786365 128 4 1 4.89733e-07 
-0.231182 -0.505851 -1.75564 0.0025 0.639591 0.5349 2.09078 0.00781749 129 4 1 5.01058e-07 
-0.227284 -0.499526 -1.75525 0.0025 0.643336 0.539289 2.09566 0.00777199 130 4 1 4.89824e-07 
-0.22341 -0.49325 -1.75258 0.0025 0.647069 0.543674 2.10052 0.00772716 131 4 1 4.84929e-07 
-0.219557 -0.48703 -1.75207 0.0025 0.650792 0.548059 2.10535 0.00768295 132 4 1 4.91653e-07 
-0.215727 -0.480839 -1.75926 0.0025 0.654515 0.552454 2.11015 0.00763925 133 4 1 5.15341e-07 
-0.211918 -0.474648 -1.78087 0.0025 0.658257 0.556882 2.11497 0.00759581 134 4 1 5.21377e-07 
-0.208131 -0.46843 -1.79195 0.0025 0.662024 0.561348 2.1198 0.0075526 135 4 1 5.21816e-07 
-0.204365 -0.462212 -1.8107 0.0025 0.665814 0.565853 2.12465 0.0075096 136 4 1 5.29244e-07 
-0.200621 -0.455972 -1.82608 0.0025 0.669632 0.5704 2.12951 0.00746679 137 4 1 5.31062e-07 
-0.196898 -0.449716 -1.84303 0.0025 0.673477 0.574992 2.1344 0.00742415 138 4 1 5.63751e-07 
-0.193197 -0.443417 -1.88436 0.0025 0.677371 0.579651 2.13932 0.00738148 139 4 1 5.6948e-07 
-0.189517 -0.437037 -1.9029 0.0025 0.681311 0.584376 2.14429 0.00733879 140 4 1 5.36362e-07 
-0.185858 -0.430682 -1.90816 0.0025 0.685272 0.589137 2.14927 0.00729637 141 4 1 5.25839e-07 
-0.18222 -0.424348 -1.91717 0.0025 0.689243 0.593923 2.15424 0.00725433 142 4 1 5.50332e-07 
-0.178604 -0.417986 -1.94841 0.0025 0.693242 0.598753 2.15923 0.00721248 143 4 1 5.40308e-07 
-0.175008 -0.41162 -1.94912 0.0025 0.697263 0.603619 2.16423 0.0071709 144 4 1 5.16813e-07 
-0.171433 -0.405281 -1.95744 0.0025 0.701286 0.608501 2.16922 0.00712976 145 4 1 5.10848e-07 
-0.167878 -0.398968 -1.95795 0.0025 0.705311 0.613395 2.17419 0.00708907 146 4 1 5.09763e-07 
-0.164344 -0.392686 -1.96986 0.0025 0.709339 0.618305 2.17915 0.00704882 147 4 1 5.0551e-07 
-0.160829 -0.38643 -1.97098 0.0025 0.71337 0.623229 2.18409 0.00700899 148 4 1 4.92357e-07 
-0.157335 -0.38022 -1.97365 0.0025 0.717397 0.62816 2.18902 0.00696964 149 4 1 4.87732e-07 
-0.153859 -0.374059 -1.97449 0.0025 0.72142 0.633098 2.19392 0.00693077 150 4 1 4.90074e-07 
-0.150404 -0.367954 -1.9828 0.0025 0.725446 0.63805 2.19881 0.00689231 151 4 1 5.11011e-07 
-0.146967 -0.361901 -2.00518 0.0025 0.729492 0.643038 2.2037 0.00685408 152 4 1 5.18523e-07 
-0.14355 -0.355907 -2.0188 0.0025 0.733565 0.64807 2.20862 0.00681602 153 4 1 5.21968e-07 
-0.140151 -0.350014 -2.03917 0.0025 0.737667 0.653149 2.21355 0.00677813 154 4 1 5.52635e-07 
-0.136771 -0.344207 -2.0766 0.0025 0.741817 0.6583 2.21852 0.00674021 155 4 1 5.68428e-07 
-0.133411 -0.338574 -2.10166 0.0025 0.746025 0.663535 2.22354 0.00670219 156 4 1 6.21561e-07 
-0.130069 -0.333147 -2.17323 0.0025 0.750324 0.668897 2.22866 0.00666379 157 4 1 7.06731e-07 
-0.126747 -0.327894 -2.26084 0.0025 0.754764 0.674446 2.23393 0.00662459 158 4 1 7.46358e-07 
-0.123444 -0.322886 -2.33887 0.0025 0.759357 0.680198 2.23935 0.00658452 159 4 1 7.84775e-07 
-0.120162 -0.318216 -2.42777 0.0025 0.764106 0.686163 2.24494 0.00654359 160 4 1 8.4874e-07 
-0.116901 -0.313879 -2.5351 0.0025 0.769033 0.692365 2.25072 0.00650167 161 4 1 8.83674e-07 
-0.113661 -0.309828 -2.62454 0.0025 0.774134 0.698802 2.25668 0.00645883 162 4 1 8.82268e-07 
-0.110442 -0.305942 -2.69772 0.0025 0.779377 0.705434 2.26278 0.00641538 163 4 1 8.42432e-07 
-0.107245 -0.302152 -2.72209 0.0025 0.78471 0.7122 2.26897 0.00637178 164 4 1 8.07745e-07 
-0.10407 -0.298537 -2.74585 0.0025 0.790099 0.71906 2.27518 0.00632832 165 4 1 9.33546e-07 
-0.100917 -0.29523 -2.90019 0.0025 0.795625 0.726111 2.28153 0.00628437 166 4 1 9.97164e-07 
-0.0977856 -0.292236 -3.00766 0.0025 0.801306 0.733365 2.28804 0.00623982 167 4 1 6.09813e-07 
-0.0946768 -0.289128 -2.78857 0.0025 0.806818 0.740415 2.29434 0.00619719 168 4 1 -1.55024e-07 
-0.0915884 -0.284798 -2.17035 0.0025 0.81162 0.746589 2.2998 0.00616052 169 4 1 -4.60555e-07 
-0.0885163 -0.279083 -1.7866 0.0025 0.815611 0.75176 2.3043 0.00613038 170 4 1 2.51219e-07 
-0.085458 -0.273469 -2.15245 0.0025 0.819461 0.75674 2.30862 0.00610157 171 4 1 5.92012e-07 
-0.0824147 -0.268574 -2.22138 0.0025 0.823417 0.761807 2.3131 0.00607226 172 4 1 -8.55109e-07 
-0.0793857 -0.262121 -0.919288 0.0025 0.826286 0.765497 2.31636 0.00605117 173 4 1 -1.9531e-06 
-0.0763635 -0.252018 0.294538 0.0025 0.827247 0.766816 2.31741 0.00604414 174 4 1 -3.78372e-07 
-0.0733415 -0.241235 -0.558335 0.0025 0.827884 0.767706 2.31806 0.00603949 175 4 1 1.69595e-06 
-0.070324 -0.233974 -1.90292 0.0025 0.829963 0.770337 2.3204 0.00602436 176 4 1 2.69623e-07 
-0.0673171 -0.227243 -0.771056 0.0025 0.832088 0.77302 2.32285 0.00600898 177 4 1 -2.23853e-06 
-0.064315 -0.215994 1.07338 0.0025 0.832107 0.773124 2.32286 0.00600884 178 3 1 -6.85855e-07 
-0.0613083 -0.20366 -0.0147344 0.0025 0.831581 0.772525 2.32219 0.00601264 179 5 1 2.02456e-06 
-0.0583024 -0.195397 -1.59275 0.0025 0.832852 0.774099 2.32362 0.00600347 180 4 1 4.06102e-07 
-0.0553048 -0.187702 -0.41795 0.0025 0.834393 0.776042 2.32541 0.00599238 181 3 1 -1.71743e-06 
-0.05231 -0.176485 0.688663 0.0025 0.834378 0.776093 2.32537 0.00599249 182 4 1 -1.74396e-07 
-0.0493123 -0.165385 -0.292077 0.0025 0.834228 0.775927 2.32515 0.00599357 183 5 1 1.02052e-06 
-0.0463164 -0.156496 -0.645434 0.0025 0.834946 0.77681 2.32598 0.00598841 184 4 1 -2.30233e-07 
-0.0433239 -0.146771 0.0505053 0.0025 0.835448 0.777467 2.32656 0.00598481 185 4 1 -4.70814e-07 
-0.0403316 -0.136023 -0.0391306 0.0025 0.835547 0.777621 2.32665 0.0059841 186 4 1 2.23667e-07 
-0.0373398 -0.125988 -0.255304 0.0025 0.835838 0.777991 2.32697 0.00598202 187 4 1 1.40776e-07 
-0.0343496 -0.116272 -0.23224 0.0025 0.836249 0.77852 2.32743 0.00597908 188 4 1 -7.96184e-08 
-0.0313607 -0.106481 -0.154033 0.0025 0.836568 0.778927 2.3278 0.0059768 189 3 1 -3.32566e-07 
-0.0283728 -0.0962126 0.226236 0.0025 0.836555 0.77892 2.32778 0.00597689 190 4 1 -1.62864e-07 
-0.0253838 -0.0854511 0.0324708 0.0025 0.836421 0.77877 2.32762 0.00597785 191 5 1 5.40746e-07 
-0.0223949 -0.0756573 -0.491126 0.0025 0.836778 0.779215 2.32802 0.0059753 192 4 1 4.84256e-08 
-0.0194085 -0.0658344 -0.0121872 0.0025 0.837169 0.779709 2.32848 0.00597251 193 3 1 -4.40583e-07 
-0.0164224 -0.0557179 0.0899943 0.0025 0.837159 0.779717 2.32846 0.00597258 194 4 1 2.57645e-08 
-0.013436 -0.0454978 -0.0618273 0.0025 0.837157 0.779717 2.32846 0.00597259 195 5 1 1.06306e-07 
-0.0104498 -0.0355742 -0.0551182 0.0025 0.837239 0.779818 2.32856 0.00597201 196 3 1 -1.19884e-07 
-0.00746395 -0.025267 0.109167 0.0025 0.837218 0.779801 2.32854 0.00597216 197 5 1 5.16884e-08 
-0.00447766 -0.0149943 -0.132412 0.0025 0.837261 0.779867 2.32859 0.00597185 198 4 1 2.82223e-07 
-0.0014921 -0.0047977 -0.277749 0.0025 0.837554 0.780225 2.32893 0.00596976 199 3 1 -3.10238e-07 
0.0014921 0.0047977 0.277749 0.0025 0.837554 0.780225 2.32893 0.00596976 200 3 1 -3.10238e-07 
0.00447766 0.0149943 0.132412 0.0025 0.837261 0.779867 2.32859 0.00597185 201 4 1 2.82223e-07 
0.00746395 0.025267 -0.109167 0.0025 0.837218 0.779801 2.32854 0.00597216 202 5 1 5.16884e-08 
0.0104498 0.0355742 0.0551182 0.0025 0.837239 0.779818 2.32856 0.00597201 203 3 1 -1.19884e-07 
0.013436 0.0454978 0.0618273 0.0025 0.837157 0.779717 2.32846 0.00597259 204 5 1 1.06306e-07 
0.0164224 0.0557179 -0.0899943 0.0025 0.837159 0.779717 2.32846 0.00597258 205 4 1 2.57645e-08 
0.0194085 0.0658344 0.0121872 0.0025 0.837169 0.779709 2.32848 0.00597251 206 3 1 -4.40583e-07 
0.0223949 0.0756573 0.491126 0.0025 0.836778 0.779215 2.32802 0.0059753 207 4 1 4.84256e-08 
0.0253838 0.0854511 -0.0324708 0.0025 0.836421 0.77877 2.32762 0.00597785 208 5 1 5.40746e-07 
0.0283728 0.0962126 -0.226236 0.0025 0.836555 0.77892 2.32778 0.00597689 209 4 1 -1.62864e-07 
0.0313607 0.106481 0.154033 0.0025 0.836568 0.778927 2.3278 0.0059768 210 3 1 -3.32566e-07 
