# Time [s]: 0.469197
# Columns: pos [m], vel [m/s], acc [m/s^2], mass [kg], dens [kg/m^3], pres [Pa], ene [J/kg], sml [m], id, neighbor, alpha, gradh, ...additional?
1.18641 -0.673078 -0.000361271 0.0025 0.511061 0.432739 2.15252 0.00978357 0 4 1 -0.000134224 
1.19119 -0.673078 -0.000220026 0.0025 0.53692 0.426202 1.95006 0.00931238 1 4 1 0.000179254 
1.19573 -0.673079 -0.00014931 0.0025 0.54825 0.430873 1.96852 0.00911992 2 3 1 -1.90585e-05 
1.20031 -0.673079 -0.000155765 0.0025 0.545986 0.429209 1.96466 0.00915774 3 5 1 3.48561e-06 
1.20489 -0.67308 -0.000201818 0.0025 0.546385 0.429365 1.9646 0.00915106 4 4 1 -1.38547e-07 
1.20947 -0.673082 -0.000265859 0.0025 0.546397 0.429337 1.96437 0.00915086 5 4 1 1.43913e-07 
1.21404 -0.673084 -0.000340942 0.0025 0.546421 0.429336 1.96431 0.00915046 6 4 1 -3.29752e-09 
1.21862 -0.673086 -0.000422011 0.0025 0.546435 0.429335 1.96425 0.00915022 7 4 1 8.46578e-09 
1.22319 -0.673088 -0.000501976 0.0025 0.546451 0.429336 1.9642 0.00914996 8 4 1 4.99186e-09 
1.22777 -0.673091 -0.000571682 0.0025 0.546464 0.429337 1.96416 0.00914973 9 4 1 5.67662e-09 
1.23234 -0.673094 -0.000621332 0.0025 0.546477 0.429338 1.96412 0.00914951 10 4 1 -2.09174e-09 
1.23692 -0.673097 -0.000642405 0.0025 0.54649 0.42934 1.96408 0.00914929 11 4 1 4.80185e-09 
1.24149 -0.673101 -0.000629488 0.0025 0.546502 0.429341 1.96404 0.00914909 12 4 1 2.83582e-09 
1.24606 -0.673104 -0.000581507 0.0025 0.546513 0.429343 1.96401 0.00914891 13 4 1 3.46627e-09 
1.25064 -0.673107 -0.000502 0.0025 0.546522 0.429344 1.96398 0.00914876 14 4 1 1.9343e-09 
1.25521 -0.67311 -0.000398382 0.0025 0.546531 0.429345 1.96396 0.00914861 15 4 1 -1.82693e-09 
1.25979 -0.673113 -0.000280436 0.0025 0.54654 0.429346 1.96393 0.00914847 16 4 1 4.62372e-09 
1.26436 -0.673115 -0.000158477 0.0025 0.546547 0.429347 1.96391 0.00914834 17 4 1 1.19627e-09 
1.26894 -0.673116 -4.16912e-05 0.0025 0.546553 0.429347 1.96389 0.00914824 18 4 1 -1.46195e-09 
1.27351 -0.673117 6.30217e-05 0.0025 0.546559 0.429347 1.96386 0.00914814 19 4 1 2.46743e-09 
1.27808 -0.673118 0.00015153 0.0025 0.546565 0.429347 1.96384 0.00914805 20 4 1 9.84225e-10 
1.28266 -0.673119 0.000222358 0.0025 0.546569 0.429347 1.96383 0.00914797 21 4 1 1.05797e-09 
1.28723 -0.673119 0.000276171 0.0025 0.546573 0.429346 1.96381 0.00914791 22 4 1 9.74296e-10 
1.29181 -0.673119 0.000315062 0.0025 0.546577 0.429346 1.96379 0.00914785 23 4 1 -2.09018e-10 
1.29638 -0.673119 0.000341827 0.0025 0.54658 0.429345 1.96378 0.00914779 24 4 1 1.4803e-09 
1.30095 -0.673119 0.000359339 0.0025 0.546583 0.429344 1.96376 0.00914774 25 4 1 7.72121e-10 
1.30553 -0.673119 0.000370102 0.0025 0.546586 0.429343 1.96375 0.0091477 26 4 1 -2.99078e-10 
1.3101 -0.673119 0.000376027 0.0025 0.546588 0.429342 1.96374 0.00914766 27 4 1 1.30538e-09 
1.31468 -0.673119 0.000378428 0.0025 0.54659 0.429341 1.96372 0.00914762 28 4 1 9.62474e-10 
1.31925 -0.673119 0.000378201 0.0025 0.546592 0.42934 1.96371 0.00914759 29 4 1 -6.62636e-10 
1.32382 -0.67312 0.000376057 0.0025 0.546594 0.429339 1.9637 0.00914756 30 4 1 6.10989e-10 
1.3284 -0.67312 0.000372777 0.0025 0.546596 0.429338 1.96369 0.00914753 31 4 1 2.06746e-09 
1.33297 -0.673121 0.000369425 0.0025 0.546597 0.429337 1.96368 0.00914751 32 4 1 -7.66212e-10 
1.33754 -0.673122 0.000367537 0.0025 0.546598 0.429336 1.96367 0.00914748 33 4 1 -7.49601e-10 
1.34212 -0.673123 0.000369168 0.0025 0.5466 0.429335 1.96366 0.00914746 34 4 1 2.18026e-09 
1.34669 -0.673124 0.00037663 0.0025 0.546601 0.429334 1.96365 0.00914744 35 4 1 -1.62886e-10 
1.35127 -0.673126 0.00039182 0.0025 0.546602 0.429333 1.96365 0.00914742 36 4 1 -8.49078e-10 
1.35584 -0.673127 0.000415367 0.0025 0.546603 0.429332 1.96364 0.00914741 37 4 1 1.44231e-09 
1.36041 -0.673129 0.000446132 0.0025 0.546604 0.429331 1.96363 0.0091474 38 4 1 1.01604e-10 
1.36499 -0.673131 0.000481652 0.0025 0.546604 0.42933 1.96362 0.00914739 39 4 1 -7.26191e-10 
1.36956 -0.673132 0.000519537 0.0025 0.546605 0.429329 1.96362 0.00914738 40 4 1 7.19021e-10 
1.37413 -0.673134 0.000559056 0.0025 0.546605 0.429327 1.96361 0.00914738 41 3 1 4.49671e-10 
1.37871 -0.673136 0.000601699 0.0025 0.546605 0.429326 1.9636 0.00914738 42 4 1 -6.20336e-10 
1.38328 -0.673139 0.000650026 0.0025 0.546605 0.429324 1.96359 0.00914738 43 4 1 -8.77834e-12 
1.38785 -0.673141 0.000705317 0.0025 0.546605 0.429322 1.96359 0.00914738 44 4 1 9.54108e-10 
1.39243 -0.673143 0.000765646 0.0025 0.546604 0.42932 1.96358 0.00914739 45 4 1 -3.89369e-10 
1.397 -0.673146 0.000826003 0.0025 0.546603 0.429318 1.96357 0.0091474 46 4 1 -7.35788e-10 
1.40158 -0.673148 0.000880836 0.0025 0.546603 0.429316 1.96357 0.00914742 47 4 1 5.90311e-10 
1.40615 -0.673151 0.000927597 0.0025 0.546601 0.429314 1.96356 0.00914743 48 4 1 2.93713e-10 
1.41072 -0.673154 0.000969006 0.0025 0.5466 0.429311 1.96355 0.00914745 49 4 1 -5.8017e-10 
1.4153 -0.673157 0.00101238 0.0025 0.546599 0.429309 1.96355 0.00914748 50 4 1 -2.69489e-10 
1.41987 -0.673161 0.0010662 0.0025 0.546597 0.429306 1.96354 0.0091475 51 4 1 6.45839e-10 
1.42444 -0.673165 0.00113589 0.0025 0.546596 0.429303 1.96353 0.00914753 52 4 1 -1.12124e-10 
1.42902 -0.67317 0.00122107 0.0025 0.546594 0.4293 1.96353 0.00914756 53 4 1 -8.94315e-10 
1.43359 -0.673174 0.00131577 0.0025 0.546592 0.429297 1.96352 0.0091476 54 4 1 -6.88029e-11 
1.43817 -0.67318 0.00141168 0.0025 0.546589 0.429293 1.96351 0.00914763 55 4 1 5.34843e-10 
1.44274 -0.673185 0.0015031 0.0025 0.546587 0.42929 1.9635 0.00914768 56 4 1 -4.84721e-10 
1.44731 -0.673191 0.00159156 0.0025 0.546584 0.429286 1.96349 0.00914773 57 4 1 -8.72785e-10 
1.45189 -0.673198 0.00168714 0.0025 0.546581 0.429281 1.96349 0.00914778 58 4 1 3.26812e-10 
1.45646 -0.673205 0.0018044 0.0025 0.546577 0.429277 1.96348 0.00914784 59 4 1 -8.32163e-12 
1.46104 -0.673213 0.00195376 0.0025 0.546574 0.429272 1.96347 0.0091479 60 4 1 -7.94571e-10 
1.46561 -0.673222 0.00213326 0.0025 0.54657 0.429267 1.96346 0.00914797 61 4 1 -6.79243e-10 
1.47018 -0.673231 0.00232765 0.0025 0.546565 0.429261 1.96345 0.00914804 62 4 1 -6.95741e-11 
1.47476 -0.673241 0.00251832 0.0025 0.54656 0.429255 1.96344 0.00914813 63 4 1 -4.20182e-10 
1.47933 -0.673252 0.00269917 0.0025 0.546554 0.429248 1.96343 0.00914822 64 4 1 -8.44746e-10 
1.48391 -0.673264 0.00288637 0.0025 0.546548 0.42924 1.96341 0.00914832 65 4 1 -4.82897e-10 
1.48848 -0.673277 0.00311197 0.0025 0.546542 0.429232 1.9634 0.00914843 66 4 1 -4.99514e-10 
1.49305 -0.673291 0.00340269 0.0025 0.546535 0.429224 1.96339 0.00914855 67 4 1 -8.99969e-10 
1.49763 -0.673307 0.00375928 0.0025 0.546527 0.429215 1.96337 0.00914869 68 4 1 -1.12051e-09 
-0.497797 -0.673324 0.00415488 0.0025 0.546518 0.429204 1.96336 0.00914883 69 4 1 -9.35362e-10 
-0.493223 -0.673343 0.00455749 0.0025 0.546508 0.429193 1.96334 0.009149 70 4 1 -1.16267e-09 
-0.488648 -0.673363 0.00496058 0.0025 0.546497 0.42918 1.96332 0.00914918 71 4 1 -1.39479e-09 
-0.484074 -0.673386 0.00539596 0.0025 0.546485 0.429167 1.9633 0.00914938 72 4 1 -1.25444e-09 
-0.479499 -0.673412 0.0059159 0.0025 0.546472 0.429152 1.96328 0.0091496 73 4 1 -1.50069e-09 
-0.474924 -0.67344 0.00655906 0.0025 0.546457 0.429135 1.96326 0.00914985 74 4 1 -2.01143e-09 
-0.470349 -0.673472 0.00732989 0.0025 0.546441 0.429117 1.96323 0.00915012 75 4 1 -2.32706e-09 
-0.465774 -0.673506 0.00820592 0.0025 0.546423 0.429096 1.96321 0.00915042 76 4 1 -2.54845e-09 
-0.461199 -0.673544 0.00915962 0.0025 0.546403 0.429073 1.96317 0.00915076 77 4 1 -2.78242e-09 
-0.456623 -0.673587 0.0101763 0.0025 0.54638 0.429048 1.96314 0.00915115 78 4 1 -3.06367e-09 
-0.452048 -0.673634 0.0112643 0.0025 0.546354 0.429019 1.9631 0.00915157 79 4 1 -3.29371e-09 
-0.447472 -0.673687 0.0124592 0.0025 0.546326 0.428988 1.96306 0.00915205 80 4 1 -3.55894e-09 
-0.442895 -0.673747 0.0138138 0.0025 0.546295 0.428953 1.96301 0.00915257 81 4 1 -3.98423e-09 
-0.438319 -0.673813 0.0153717 0.0025 0.54626 0.428915 1.96296 0.00915315 82 4 1 -4.45758e-09 
-0.433742 -0.673886 0.0171349 0.0025 0.546221 0.428872 1.9629 0.0091538 83 4 1 -4.82591e-09 
-0.429165 -0.673967 0.0190268 0.0025 0.546179 0.428825 1.96284 0.00915451 84 4 1 -4.95683e-09 
-0.424588 -0.674054 0.020879 0.0025 0.546132 0.428773 1.96277 0.0091553 85 4 1 -4.63809e-09 
-0.42001 -0.674149 0.0225141 0.0025 0.546081 0.428716 1.9627 0.00915615 86 4 1 -3.91837e-09 
-0.415432 -0.674252 0.02392 0.0025 0.546026 0.428656 1.96262 0.00915707 87 4 1 -3.05894e-09 
-0.410853 -0.674363 0.0252452 0.0025 0.545969 0.428593 1.96253 0.00915802 88 4 1 -2.36403e-09 
-0.406274 -0.674478 0.0264489 0.0025 0.54591 0.428528 1.96245 0.00915902 89 4 1 -1.27839e-09 
-0.401694 -0.674596 0.0271262 0.0025 0.54585 0.428461 1.96236 0.00916003 90 4 1 7.07116e-10 
-0.397114 -0.674713 0.0269273 0.0025 0.545789 0.428395 1.96227 0.00916105 91 4 1 3.08146e-09 
-0.392533 -0.674826 0.0257979 0.0025 0.545731 0.428331 1.96219 0.00916201 92 4 1 6.04771e-09 
-0.387952 -0.674932 0.023685 0.0025 0.545679 0.428273 1.96211 0.0091629 93 4 1 9.12975e-09 
-0.38337 -0.675026 0.0207363 0.0025 0.545633 0.428223 1.96205 0.00916367 94 4 1 1.14374e-08 
-0.378788 -0.6751 0.016639 0.0025 0.545597 0.428183 1.96199 0.00916428 95 4 1 1.55512e-08 
-0.374206 -0.67515 0.00902266 0.0025 0.545574 0.428158 1.96196 0.00916467 96 4 1 1.43046e-08 
-0.369623 -0.675184 0.00953792 0.0025 0.545563 0.428146 1.96194 0.00916485 97 5 1 3.32256e-08 
-0.365041 -0.675173 -0.0150906 0.0025 0.545579 0.428165 1.96197 0.00916457 98 4 1 5.80607e-08 
-0.360459 -0.675057 -0.0321775 0.0025 0.545644 0.428238 1.96206 0.00916348 99 4 1 1.00192e-07 
-0.355877 -0.674825 -0.0775476 0.0025 0.545794 0.428408 1.96227 0.00916096 100 4 1 2.34655e-07 
-0.351298 -0.674232 -0.198983 0.0025 0.546134 0.428786 1.96276 0.00915527 101 4 1 3.77764e-07 
-0.346722 -0.673023 -0.349554 0.0025 0.546767 0.429484 1.96367 0.00914466 102 4 1 4.31857e-07 
-0.342153 -0.671193 -0.484354 0.0025 0.547722 0.430534 1.96504 0.00912872 103 4 1 4.86015e-07 
-0.337593 -0.668764 -0.638491 0.0025 0.549012 0.431957 1.96689 0.00910727 104 4 1 6.1488e-07 
-0.333046 -0.665583 -0.832033 0.0025 0.550695 0.433816 1.9693 0.00907943 105 4 1 7.76463e-07 
-0.328514 -0.661515 -1.05785 0.0025 0.552834 0.436177 1.97235 0.0090443 106 4 1 8.6798e-07 
-0.324001 -0.656553 -1.25412 0.0025 0.555425 0.439038 1.97605 0.00900211 107 4 1 8.38634e-07 
-0.319512 -0.650912 -1.3885 0.0025 0.558374 0.442299 1.98024 0.00895456 108 4 1 7.4232e-07 
-0.315047 -0.64487 -1.45996 0.0025 0.561557 0.445828 1.98475 0.00890382 109 4 1 6.63746e-07 
-0.310608 -0.63864 -1.50481 0.0025 0.564878 0.449523 1.98943 0.00885147 110 4 1 6.6464e-07 
-0.306195 -0.632248 -1.5601 0.0025 0.568314 0.453357 1.99427 0.00879795 111 4 1 7.0918e-07 
-0.30181 -0.625671 -1.62071 0.0025 0.571874 0.457338 1.99925 0.00874318 112 4 1 7.68442e-07 
-0.297452 -0.618837 -1.69626 0.0025 0.575574 0.461487 2.00442 0.00868697 113 4 1 8.20027e-07 
-0.293123 -0.611766 -1.76956 0.0025 0.579423 0.465812 2.00977 0.00862927 114 4 1 8.32678e-07 
-0.288823 -0.604481 -1.82901 0.0025 0.583403 0.470296 2.01528 0.0085704 115 4 1 8.0045e-07 
-0.284552 -0.597077 -1.85931 0.0025 0.587471 0.474891 2.02089 0.00851106 116 4 1 7.59284e-07 
-0.280311 -0.589629 -1.87983 0.0025 0.591585 0.479552 2.02654 0.00845187 117 4 1 7.16313e-07 
-0.2761 -0.582202 -1.88097 0.0025 0.595713 0.484242 2.03218 0.0083933 118 4 1 6.67159e-07 
-0.271918 -0.574849 -1.87303 0.0025 0.599825 0.488927 2.03778 0.00833576 119 4 1 6.25184e-07 
-0.267764 -0.567601 -1.85624 0.0025 0.603901 0.493584 2.04331 0.0082795 120 4 1 5.8674e-07 
-0.263638 -0.560487 -1.83429 0.0025 0.607928 0.498198 2.04875 0.00822465 121 4 1 5.68836e-07 
-0.25954 -0.553504 -1.82026 0.0025 0.611908 0.502771 2.0541 0.00817116 122 4 1 5.73703e-07 
-0.255467 -0.546603 -1.81852 0.0025 0.615857 0.507319 2.05939 0.00811876 123 4 1 5.5285e-07 
-0.251421 -0.539782 -1.80037 0.0025 0.619773 0.511839 2.06462 0.00806747 124 4 1 5.16476e-07 
-0.2474 -0.533097 -1.77947 0.0025 0.623641 0.516318 2.06977 0.00801743 125 4 1 5.18933e-07 
-0.243403 -0.526495 -1.77761 0.0025 0.627475 0.520768 2.07485 0.00796844 126 4 1 5.22919e-07 
-0.239431 -0.519962 -1.77255 0.0025 0.631289 0.525203 2.07988 0.00792031 127 4 1 4.9311e-07 
-0.235483 -0.51351 -1.75359 0.0025 0.63507 0.529612 2.08485 0.00787315 128 4 1 4.86095e-07 
-0.231558 -0.507153 -1.75158 0.0025 0.638822 0.533999 2.08977 0.00782691 129 4 1 4.98307e-07 
-0.227656 -0.500829 -1.75294 0.0025 0.642562 0.538381 2.09466 0.00778135 130 4 1 4.9241e-07 
-0.223776 -0.494551 -1.75133 0.0025 0.646292 0.542761 2.09951 0.00773644 131 4 1 4.83718e-07 
-0.219919 -0.48833 -1.749 0.0025 0.650012 0.54714 2.10434 0.00769217 132 4 1 4.87204e-07 
-0.216084 -0.482143 -1.75453 0.0025 0.653729 0.551525 2.10914 0.00764843 133 4 1 5.08778e-07 
-0.212271 -0.475968 -1.77314 0.0025 0.65746 0.555938 2.11395 0.00760502 134 4 1 5.19429e-07 
-0.208479 -0.469759 -1.78728 0.0025 0.661216 0.560389 2.11877 0.00756182 135 4 1 5.20344e-07 
-0.204709 -0.463554 -1.80379 0.0025 0.664996 0.564879 2.1236 0.00751885 136 4 1 5.25759e-07 
-0.20096 -0.457326 -1.82004 0.0025 0.668801 0.56941 2.12846 0.00747606 137 4 1 5.27757e-07 
-0.197233 -0.451082 -1.83535 0.0025 0.672634 0.573984 2.13333 0.00743346 138 4 1 5.53395e-07 
-0.193527 -0.444812 -1.87103 0.0025 0.676509 0.578619 2.13823 0.00739088 139 4 1 5.71447e-07 
-0.189842 -0.438449 -1.89945 0.0025 0.680435 0.583325 2.14319 0.00734824 140 4 1 5.44159e-07 
-0.186178 -0.432098 -1.90451 0.0025 0.684388 0.588074 2.14816 0.00730579 141 4 1 5.20254e-07 
-0.182536 -0.425769 -1.90922 0.0025 0.688349 0.592845 2.15312 0.00726375 142 4 1 5.45157e-07 
-0.178915 -0.41943 -1.94073 0.0025 0.692336 0.597657 2.1581 0.00722193 143 4 1 5.43275e-07 
-0.175314 -0.413066 -1.9456 0.0025 0.696347 0.602509 2.1631 0.00718033 144 4 1 5.18917e-07 
-0.171734 -0.406733 -1.95291 0.0025 0.700364 0.60738 2.16808 0.00713915 145 4 1 5.10668e-07 
-0.168175 -0.400421 -1.95437 0.0025 0.704382 0.612265 2.17305 0.00709842 146 4 1 5.09069e-07 
-0.164636 -0.394147 -1.96493 0.0025 0.708404 0.617164 2.178 0.00705812 147 4 1 5.06324e-07 
-0.161117 -0.387893 -1.96825 0.0025 0.712429 0.622079 2.18294 0.00701824 148 4 1 4.9485e-07 
-0.157617 -0.381684 -1.97118 0.0025 0.716452 0.627003 2.18786 0.00697883 149 4 1 4.89231e-07 
-0.154138 -0.375525 -1.97269 0.0025 0.720474 0.631935 2.19277 0.00693988 150 4 1 4.9151e-07 
-0.150678 -0.369426 -1.981 0.0025 0.724498 0.636883 2.19766 0.00690133 151 4 1 5.11352e-07 
-0.147236 -0.36339 -2.00263 0.0025 0.728543 0.641867 2.20256 0.00686302 152 4 1 5.24409e-07 
-0.143814 -0.357407 -2.02107 0.0025 0.732618 0.646898 2.20747 0.00682484 153 4 1 5.26971e-07 
-0.140412 -0.351528 -2.03924 0.0025 0.736724 0.651981 2.21242 0.0067868 154 4 1 5.62367e-07 
-0.137028 -0.345753 -2.08436 0.0025 0.740885 0.657143 2.2174 0.00674869 155 4 1 5.87197e-07 
-0.133663 -0.34014 -2.11528 0.0025 0.745115 0.662402 2.22246 0.00671037 156 4 1 6.28293e-07 
-0.130317 -0.334764 -2.18026 0.0025 0.749437 0.66779 2.22761 0.00667168 157 4 1 7.16134e-07 
-0.126991 -0.329578 -2.27437 0.0025 0.753902 0.673368 2.2329 0.00663216 158 4 1 7.73869e-07 
-0.123685 -0.324632 -2.36396 0.0025 0.758534 0.679168 2.23838 0.00659166 159 4 1 8.08139e-07 
-0.120399 -0.320028 -2.45323 0.0025 0.763333 0.68519 2.24403 0.00655022 160 4 1 8.56892e-07 
-0.117135 -0.31577 -2.55518 0.0025 0.768304 0.691445 2.24987 0.00650784 161 4 1 8.76726e-07 
-0.113891 -0.31178 -2.63202 0.0025 0.773434 0.697916 2.25587 0.00646468 162 4 1 8.6776e-07 
-0.11067 -0.307944 -2.69514 0.0025 0.778688 0.704562 2.26198 0.00642105 163 4 1 8.50169e-07 
-0.10747 -0.304177 -2.73124 0.0025 0.784035 0.711344 2.26819 0.00637727 164 4 1 8.47991e-07 
-0.104293 -0.300589 -2.78017 0.0025 0.789464 0.718252 2.27445 0.00633341 165 4 1 9.63549e-07 
-0.101137 -0.297398 -2.93756 0.0025 0.795042 0.725364 2.28087 0.00628897 166 4 1 9.45051e-07 
-0.0980035 -0.294463 -2.98947 0.0025 0.80072 0.732608 2.28737 0.00624438 167 4 1 3.94067e-07 
-0.0948923 -0.291135 -2.61684 0.0025 0.806068 0.739448 2.29349 0.00620295 168 4 1 -3.33344e-07 
-0.0918005 -0.286346 -1.99906 0.0025 0.810602 0.745285 2.29864 0.00616826 169 4 1 -2.97461e-07 
-0.088724 -0.280435 -1.85472 0.0025 0.814492 0.750325 2.30303 0.00613879 170 4 1 4.8365e-07 
-0.0856616 -0.275113 -2.27398 0.0025 0.818431 0.755396 2.30747 0.00610925 171 4 1 3.1294e-07 
-0.0826147 -0.270129 -1.96612 0.0025 0.822229 0.760251 2.31178 0.00608103 172 4 1 -1.3899e-06 
-0.0795806 -0.262617 -0.416968 0.0025 0.824515 0.763213 2.31437 0.00606417 173 4 1 -1.76628e-06 
-0.0765506 -0.251806 0.275195 0.0025 0.825116 0.764081 2.315 0.00605975 174 4 1 4.34917e-07 
-0.0735208 -0.241856 -1.11357 0.0025 0.826135 0.76543 2.31609 0.00605228 175 4 1 1.71642e-06 
-0.0704983 -0.235371 -1.86032 0.0025 0.828542 0.768456 2.31883 0.0060347 176 4 1 -7.29121e-07 
-0.0674861 -0.227552 -0.0609008 0.0025 0.83013 0.770481 2.32067 0.00602315 177 3 1 -2.22642e-06 
-0.0644751 -0.215201 1.06147 0.0025 0.82966 0.769981 2.3201 0.00602656 178 4 1 3.30569e-07 
-0.0614596 -0.20391 -0.656476 0.0025 0.829573 0.769906 2.31993 0.0060272 179 5 1 2.02631e-06 
-0.0584479 -0.196551 -1.51486 0.0025 0.831226 0.771952 2.32182 0.00601521 180 4 1 -5.13227e-07 
-0.0554443 -0.187814 0.11723 0.0025 0.832355 0.7734 2.32314 0.00600705 181 3 1 -1.5795e-06 
-0.0524409 -0.176031 0.535337 0.0025 0.832072 0.773113 2.32278 0.0060091 182 5 1 4.76183e-07 
-0.0494352 -0.165715 -0.597103 0.0025 0.832218 0.773298 2.32291 0.00600804 183 4 1 7.76305e-07 
-0.0464328 -0.156902 -0.447148 0.0025 0.83301 0.77428 2.32383 0.00600233 184 4 1 -5.59792e-07 
-0.0434329 -0.146692 0.161538 0.0025 0.833308 0.77469 2.32417 0.00600018 185 4 1 -2.32636e-07 
-0.0404326 -0.136097 -0.159228 0.0025 0.833409 0.77484 2.32426 0.00599945 186 4 1 3.35784e-07 
-0.0374335 -0.126189 -0.285342 0.0025 0.833801 0.775334 2.3247 0.00599664 187 4 1 3.64855e-08 
-0.034436 -0.116439 -0.219516 0.0025 0.834224 0.775878 2.32518 0.0059936 188 4 1 -1.59008e-07 
-0.0314399 -0.106564 -0.0682718 0.0025 0.834471 0.776194 2.32546 0.00599182 189 3 1 -3.63459e-07 
-0.0284442 -0.0960286 0.269286 0.0025 0.834368 0.776078 2.32534 0.00599256 190 4 1 2.09721e-08 
-0.0254473 -0.0854885 -0.133273 0.0025 0.834318 0.776028 2.32527 0.00599292 191 5 1 5.39432e-07 
-0.0224512 -0.075997 -0.423935 0.0025 0.834745 0.77656 2.32576 0.00598986 192 4 1 -9.89108e-08 
-0.0194574 -0.0658342 0.012933 0.0025 0.835076 0.776985 2.32615 0.00598748 193 3 1 -3.99463e-07 
-0.0164638 -0.0556518 0.0879814 0.0025 0.83505 0.776969 2.32611 0.00598767 194 5 1 8.03231e-08 
-0.0134698 -0.0455584 -0.101381 0.0025 0.835071 0.776996 2.32614 0.00598751 195 4 1 5.66169e-08 
-0.0104763 -0.03559 0.0125301 0.0025 0.835132 0.777071 2.32622 0.00598708 196 3 1 -1.32915e-07 
-0.00748269 -0.0251959 0.0822125 0.0025 0.835084 0.777021 2.32616 0.00598742 197 5 1 1.02083e-07 
-0.00448883 -0.0150939 -0.135692 0.0025 0.83515 0.777116 2.32624 0.00598695 198 4 1 3.13635e-07 
-0.00149574 -0.00502289 -0.328719 0.0025 0.835481 0.777523 2.32663 0.00598457 199 3 1 -3.59808e-07 
0.00149574 0.00502289 0.328719 0.0025 0.835481 0.777523 2.32663 0.00598457 200 3 1 -3.59808e-07 
0.00448883 0.0150939 0.135692 0.0025 0.83515 0.777116 2.32624 0.00598695 201 4 1 3.13635e-07 
0.00748269 0.0251959 -0.0822125 0.0025 0.835084 0.777021 2.32616 0.00598742 202 5 1 1.02083e-07 
0.0104763 0.03559 -0.0125301 0.0025 0.835132 0.777071 2.32622 0.00598708 203 3 1 -1.32915e-07 
0.0134698 0.0455584 0.101381 0.0025 0.835071 0.776996 2.32614 0.00598751 204 4 1 5.66169e-08 
0.0164638 0.0556518 -0.0879814 0.0025 0.83505 0.776969 2.32611 0.00598767 205 5 1 8.03231e-08 
0.0194574 0.0658342 -0.012933 0.0025 0.835076 0.776985 2.32615 0.00598748 206 3 1 -3.99463e-07 
0.0224512 0.075997 0.423935 0.0025 0.834745 0.77656 2.32576 0.00598986 207 4 1 -9.89108e-08 
0.0254473 0.0854885 0.133273 0.0025 0.834318 0.776028 2.32527 0.00599292 208 5 1 5.39432e-07 
0.0284442 0.0960286 -0.269286 0.0025 0.834368 0.776078 2.32534 0.00599256 209 4 1 2.09721e-08 
0.0314399 0.106564 0.0682718 0.0025 0.834471 0.776194 2.32546 0.00599182 210 3 1 -3.63459e-07 
