# Time [s]: 0.474396
# Columns: pos [m], vel [m/s], acc [m/s^2], mass [kg], dens [kg/m^3], pres [Pa], ene [J/kg], sml [m], id, neighbor, alpha, gradh, ...additional?
1.18291 -0.673079 0.000785988 0.0025 0.511062 0.432741 2.15252 0.00978354 0 4 1 -0.000134219 
1.1877 -0.67308 -0.000636417 0.0025 0.53692 0.426203 1.95006 0.00931238 1 4 1 0.000179256 
1.19223 -0.67308 -0.000472701 0.0025 0.548251 0.430873 1.96852 0.00911992 2 3 1 -1.90584e-05 
1.19682 -0.67308 -0.000322554 0.0025 0.545987 0.42921 1.96467 0.00915773 3 5 1 3.48544e-06 
1.20139 -0.673082 -0.000309633 0.0025 0.546386 0.429366 1.9646 0.00915104 4 4 1 -1.38576e-07 
1.20597 -0.673083 -0.000366901 0.0025 0.546398 0.429338 1.96437 0.00915084 5 4 1 1.43926e-07 
1.21054 -0.673086 -0.000444929 0.0025 0.546422 0.429338 1.96432 0.00915044 6 4 1 -3.28782e-09 
1.21512 -0.673088 -0.000522153 0.0025 0.546437 0.429337 1.96425 0.00915019 7 4 1 8.453e-09 
1.21969 -0.673091 -0.000586871 0.0025 0.546452 0.429338 1.9642 0.00914993 8 4 1 4.94966e-09 
1.22427 -0.673094 -0.00062985 0.0025 0.546466 0.429339 1.96416 0.00914969 9 4 1 5.60553e-09 
1.22884 -0.673097 -0.000643744 0.0025 0.546479 0.42934 1.96412 0.00914947 10 4 1 -2.18549e-09 
1.23342 -0.673101 -0.000624348 0.0025 0.546492 0.429342 1.96408 0.00914926 11 4 1 4.6964e-09 
1.23799 -0.673104 -0.000571591 0.0025 0.546504 0.429343 1.96404 0.00914906 12 4 1 2.73217e-09 
1.24257 -0.673107 -0.000489637 0.0025 0.546515 0.429345 1.96401 0.00914888 13 4 1 3.37768e-09 
1.24714 -0.67311 -0.000386061 0.0025 0.546524 0.429346 1.96398 0.00914873 14 4 1 1.871e-09 
1.25171 -0.673112 -0.000270366 0.0025 0.546533 0.429347 1.96396 0.00914858 15 4 1 -1.85952e-09 
1.25629 -0.673114 -0.000152292 0.0025 0.546541 0.429347 1.96393 0.00914845 16 4 1 4.62197e-09 
1.26086 -0.673115 -4.03228e-05 0.0025 0.546548 0.429348 1.96391 0.00914833 17 4 1 1.22091e-09 
1.26544 -0.673116 5.92975e-05 0.0025 0.546554 0.429348 1.96389 0.00914823 18 4 1 -1.41822e-09 
1.27001 -0.673117 0.000142952 0.0025 0.54656 0.429348 1.96386 0.00914813 19 4 1 2.522e-09 
1.27458 -0.673117 0.000209301 0.0025 0.546565 0.429347 1.96384 0.00914804 20 4 1 1.04246e-09 
1.27916 -0.673117 0.000257872 0.0025 0.546569 0.429347 1.96383 0.00914797 21 4 1 1.11332e-09 
1.28373 -0.673117 0.000288094 0.0025 0.546573 0.429346 1.96381 0.0091479 22 4 1 1.01933e-09 
1.28831 -0.673117 0.000320347 0.0025 0.546577 0.429346 1.96379 0.00914785 23 4 1 -1.69033e-10 
1.29288 -0.673117 0.000337362 0.0025 0.54658 0.429345 1.96378 0.00914779 24 4 1 1.51792e-09 
1.29745 -0.673117 0.000346504 0.0025 0.546583 0.429344 1.96376 0.00914774 25 4 1 7.9576e-10 
1.30203 -0.673117 0.000349064 0.0025 0.546586 0.429343 1.96375 0.0091477 26 4 1 -2.8226e-10 
1.3066 -0.673117 0.000347795 0.0025 0.546588 0.429342 1.96374 0.00914766 27 4 1 1.32283e-09 
1.31118 -0.673117 0.000344779 0.0025 0.54659 0.429341 1.96372 0.00914762 28 4 1 9.76579e-10 
1.31575 -0.673118 0.000340258 0.0025 0.546592 0.42934 1.96371 0.00914758 29 4 1 -6.50911e-10 
1.32032 -0.673118 0.000334746 0.0025 0.546594 0.429339 1.9637 0.00914755 30 4 1 6.20089e-10 
1.3249 -0.673119 0.000329377 0.0025 0.546596 0.429339 1.96369 0.00914752 31 4 1 2.07291e-09 
1.32947 -0.673119 0.000325799 0.0025 0.546598 0.429338 1.96368 0.0091475 32 4 1 -7.65788e-10 
1.33404 -0.67312 0.000326062 0.0025 0.546599 0.429337 1.96367 0.00914747 33 4 1 -7.55273e-10 
1.33862 -0.673121 0.00033226 0.0025 0.546601 0.429336 1.96366 0.00914745 34 4 1 2.16872e-09 
1.34319 -0.673123 0.000345865 0.0025 0.546602 0.429335 1.96366 0.00914743 35 4 1 -1.77947e-10 
1.34777 -0.673124 0.000367054 0.0025 0.546603 0.429334 1.96365 0.00914741 36 4 1 -8.63452e-10 
1.35234 -0.673125 0.000394502 0.0025 0.546604 0.429333 1.96364 0.00914739 37 4 1 1.43305e-09 
1.35691 -0.673127 0.000426013 0.0025 0.546605 0.429332 1.96363 0.00914738 38 4 1 9.95995e-11 
1.36149 -0.673128 0.000459799 0.0025 0.546605 0.429331 1.96362 0.00914737 39 4 1 -7.22683e-10 
1.36606 -0.67313 0.000495621 0.0025 0.546606 0.42933 1.96362 0.00914736 40 4 1 7.23304e-10 
1.37063 -0.673132 0.000534886 0.0025 0.546606 0.429328 1.96361 0.00914736 41 4 1 4.50446e-10 
1.37521 -0.673133 0.00057936 0.0025 0.546606 0.429327 1.9636 0.00914736 42 4 1 -6.22986e-10 
1.37978 -0.673135 0.00062923 0.0025 0.546606 0.429325 1.9636 0.00914736 43 3 1 -9.086e-12 
1.38436 -0.673137 0.000681897 0.0025 0.546606 0.429324 1.96359 0.00914736 44 4 1 9.64672e-10 
1.38893 -0.673139 0.000732668 0.0025 0.546605 0.429322 1.96358 0.00914737 45 4 1 -3.62463e-10 
1.3935 -0.673141 0.000777216 0.0025 0.546605 0.42932 1.96358 0.00914738 46 4 1 -6.94991e-10 
1.39808 -0.673144 0.000814435 0.0025 0.546604 0.429318 1.96357 0.00914739 47 4 1 6.34394e-10 
1.40265 -0.673146 0.000847785 0.0025 0.546603 0.429316 1.96356 0.0091474 48 4 1 3.27516e-10 
1.40722 -0.673149 0.000884095 0.0025 0.546602 0.429314 1.96356 0.00914742 49 4 1 -5.65461e-10 
1.4118 -0.673152 0.000930341 0.0025 0.546601 0.429311 1.96355 0.00914744 50 4 1 -2.72446e-10 
1.41637 -0.673156 0.000990153 0.0025 0.5466 0.429309 1.96354 0.00914746 51 4 1 6.3679e-10 
1.42095 -0.67316 0.00106196 0.0025 0.546598 0.429306 1.96354 0.00914749 52 4 1 -1.11193e-10 
1.42552 -0.673164 0.00113986 0.0025 0.546596 0.429303 1.96353 0.00914752 53 4 1 -8.71152e-10 
1.43009 -0.673168 0.00121691 0.0025 0.546595 0.4293 1.96352 0.00914755 54 4 1 -2.20987e-11 
1.43467 -0.673173 0.0012896 0.0025 0.546593 0.429297 1.96351 0.00914758 55 4 1 5.93084e-10 
1.43924 -0.673178 0.0013612 0.0025 0.54659 0.429294 1.96351 0.00914762 56 4 1 -4.35513e-10 
1.44381 -0.673183 0.00144155 0.0025 0.546588 0.42929 1.9635 0.00914766 57 4 1 -8.50131e-10 
1.44839 -0.67319 0.00154236 0.0025 0.546585 0.429286 1.96349 0.00914771 58 4 1 3.21915e-10 
1.45296 -0.673196 0.00166957 0.0025 0.546582 0.429282 1.96348 0.00914776 59 4 1 -1.91758e-11 
1.45754 -0.673203 0.00181801 0.0025 0.546578 0.429277 1.96348 0.00914782 60 4 1 -7.76547e-10 
1.46211 -0.673211 0.00197326 0.0025 0.546575 0.429272 1.96347 0.00914788 61 4 1 -6.07502e-10 
1.46668 -0.673219 0.00212172 0.0025 0.546571 0.429267 1.96346 0.00914795 62 4 1 4.83462e-11 
1.47126 -0.673229 0.0022629 0.0025 0.546566 0.429261 1.96345 0.00914802 63 4 1 -2.97697e-10 
1.47583 -0.673239 0.00241407 0.0025 0.546561 0.429255 1.96344 0.00914811 64 4 1 -7.66355e-10 
1.48041 -0.67325 0.00260118 0.0025 0.546556 0.429249 1.96343 0.0091482 65 4 1 -4.64156e-10 
1.48498 -0.673262 0.00284076 0.0025 0.54655 0.429241 1.96341 0.0091483 66 4 1 -5.01813e-10 
1.48955 -0.673274 0.00312661 0.0025 0.546543 0.429234 1.9634 0.0091484 67 4 1 -8.51721e-10 
1.49413 -0.673289 0.00343376 0.0025 0.546536 0.429225 1.96339 0.00914853 68 4 1 -9.70808e-10 
1.4987 -0.673304 0.00373951 0.0025 0.546528 0.429216 1.96337 0.00914866 69 4 1 -6.98456e-10 
-0.496723 -0.673321 0.00404553 0.0025 0.546519 0.429206 1.96336 0.00914881 70 4 1 -9.12098e-10 
-0.492149 -0.673339 0.00438236 0.0025 0.54651 0.429194 1.96334 0.00914897 71 4 1 -1.20583e-09 
-0.487574 -0.67336 0.00479104 0.0025 0.546499 0.429182 1.96333 0.00914914 72 4 1 -1.14157e-09 
-0.483 -0.673383 0.00529728 0.0025 0.546488 0.429169 1.96331 0.00914934 73 4 1 -1.40475e-09 
-0.478425 -0.673408 0.00589913 0.0025 0.546475 0.429154 1.96329 0.00914955 74 4 1 -1.84521e-09 
-0.47385 -0.673435 0.00657528 0.0025 0.54646 0.429138 1.96326 0.0091498 75 4 1 -2.03406e-09 
-0.469275 -0.673466 0.00730346 0.0025 0.546444 0.42912 1.96324 0.00915007 76 4 1 -2.12915e-09 
-0.4647 -0.673499 0.00807621 0.0025 0.546426 0.429099 1.96321 0.00915037 77 4 1 -2.28681e-09 
-0.460125 -0.673537 0.00891026 0.0025 0.546406 0.429077 1.96318 0.00915071 78 4 1 -2.57165e-09 
-0.455549 -0.673579 0.00984744 0.0025 0.546384 0.429052 1.96314 0.00915108 79 4 1 -2.88664e-09 
-0.450974 -0.673627 0.0109423 0.0025 0.546359 0.429024 1.96311 0.00915149 80 4 1 -3.28055e-09 
-0.446398 -0.673679 0.012237 0.0025 0.546331 0.428994 1.96307 0.00915195 81 4 1 -3.80781e-09 
-0.441822 -0.673738 0.01373 0.0025 0.546301 0.428959 1.96302 0.00915247 82 4 1 -4.27871e-09 
-0.437245 -0.673802 0.0153537 0.0025 0.546266 0.428921 1.96297 0.00915305 83 4 1 -4.50929e-09 
-0.432669 -0.673873 0.0169941 0.0025 0.546228 0.428879 1.96291 0.00915369 84 4 1 -4.48799e-09 
-0.428092 -0.673952 0.0185819 0.0025 0.546186 0.428832 1.96285 0.0091544 85 4 1 -4.30868e-09 
-0.423514 -0.674038 0.0201789 0.0025 0.54614 0.428781 1.96278 0.00915517 86 4 1 -4.21707e-09 
-0.418937 -0.674133 0.0218919 0.0025 0.54609 0.428726 1.96271 0.009156 87 4 1 -4.13846e-09 
-0.414358 -0.674236 0.0236478 0.0025 0.546037 0.428668 1.96263 0.00915689 88 4 1 -3.79769e-09 
-0.40978 -0.674344 0.0251702 0.0025 0.545981 0.428605 1.96255 0.00915784 89 4 1 -2.73469e-09 
-0.4052 -0.674457 0.0262363 0.0025 0.545922 0.42854 1.96246 0.00915883 90 4 1 -1.10483e-09 
-0.400621 -0.674573 0.0267818 0.0025 0.545861 0.428474 1.96238 0.00915984 91 4 1 4.82526e-10 
-0.396041 -0.67469 0.0267516 0.0025 0.545801 0.428408 1.96229 0.00916084 92 4 1 2.65712e-09 
-0.39146 -0.674803 0.0259756 0.0025 0.545744 0.428345 1.9622 0.00916181 93 4 1 5.53288e-09 
-0.386879 -0.674908 0.0240062 0.0025 0.54569 0.428286 1.96213 0.00916271 94 4 1 8.62008e-09 
-0.382297 -0.675002 0.0206329 0.0025 0.545643 0.428235 1.96206 0.00916349 95 4 1 1.17311e-08 
-0.377715 -0.675082 0.0165956 0.0025 0.545607 0.428194 1.96201 0.00916411 96 4 1 1.49275e-08 
-0.373133 -0.675137 0.010901 0.0025 0.545582 0.428167 1.96197 0.00916452 97 4 1 1.25909e-08 
-0.368551 -0.675168 0.009282 0.0025 0.545568 0.428152 1.96195 0.00916475 98 5 1 2.78841e-08 
-0.363968 -0.675175 -0.00925825 0.0025 0.545578 0.428164 1.96196 0.00916459 99 4 1 5.62775e-08 
-0.359386 -0.675073 -0.0313552 0.0025 0.545635 0.428227 1.96204 0.00916364 100 4 1 8.67948e-08 
-0.354805 -0.674866 -0.0634869 0.0025 0.545765 0.428374 1.96223 0.00916146 101 4 1 1.97779e-07 
-0.350225 -0.674368 -0.168573 0.0025 0.546056 0.428699 1.96265 0.00915658 102 4 1 3.55172e-07 
-0.345648 -0.673299 -0.321258 0.0025 0.546626 0.429328 1.96347 0.00914702 103 4 1 4.27507e-07 
-0.341078 -0.671591 -0.458271 0.0025 0.547517 0.430308 1.96474 0.00913214 104 4 1 4.68248e-07 
-0.336516 -0.669287 -0.604811 0.0025 0.548736 0.431652 1.96649 0.00911185 105 4 1 5.717e-07 
-0.331966 -0.666286 -0.782576 0.0025 0.550326 0.433407 1.96877 0.00908553 106 4 1 7.25511e-07 
-0.32743 -0.662437 -0.999525 0.0025 0.552349 0.435641 1.97166 0.00905224 107 4 1 8.4314e-07 
-0.322914 -0.657694 -1.20464 0.0025 0.554825 0.438375 1.97519 0.00901185 108 4 1 8.48124e-07 
-0.318419 -0.652227 -1.35638 0.0025 0.557685 0.441536 1.97926 0.00896564 109 4 1 7.63494e-07 
-0.313948 -0.6463 -1.44136 0.0025 0.560807 0.444996 1.98369 0.00891572 110 4 1 6.63758e-07 
-0.309503 -0.640154 -1.48312 0.0025 0.564081 0.448634 1.98831 0.00886398 111 4 1 6.36912e-07 
-0.305084 -0.63384 -1.52992 0.0025 0.56746 0.452402 1.99307 0.0088112 112 4 1 6.78149e-07 
-0.300691 -0.627372 -1.58846 0.0025 0.570952 0.456306 1.99796 0.0087573 113 4 1 7.38061e-07 
-0.296326 -0.620678 -1.65925 0.0025 0.574578 0.460369 2.00303 0.00870203 114 4 1 7.876e-07 
-0.291989 -0.613746 -1.7297 0.0025 0.578347 0.464601 2.00827 0.00864533 115 4 1 8.14065e-07 
-0.287681 -0.606588 -1.79501 0.0025 0.58225 0.468995 2.01368 0.00858738 116 4 1 7.96451e-07 
-0.283402 -0.599288 -1.83195 0.0025 0.586253 0.473514 2.01921 0.00852874 117 4 1 7.55965e-07 
-0.279152 -0.591924 -1.85532 0.0025 0.590313 0.47811 2.02479 0.00847008 118 4 1 7.14896e-07 
-0.274932 -0.584562 -1.8617 0.0025 0.594397 0.482745 2.03038 0.00841189 119 4 1 6.68888e-07 
-0.27074 -0.57726 -1.85709 0.0025 0.598473 0.487385 2.03594 0.00835459 120 4 1 6.27549e-07 
-0.266577 -0.570052 -1.84417 0.0025 0.602521 0.492006 2.04144 0.00829846 121 4 1 5.87667e-07 
-0.262442 -0.562964 -1.82364 0.0025 0.606525 0.496589 2.04686 0.00824368 122 4 1 5.57223e-07 
-0.258333 -0.55601 -1.80286 0.0025 0.610478 0.501126 2.05218 0.0081903 123 4 1 5.57636e-07 
-0.254251 -0.549159 -1.79926 0.0025 0.614394 0.505632 2.05743 0.0081381 124 4 1 5.56638e-07 
-0.250195 -0.54237 -1.79196 0.0025 0.618283 0.510117 2.06263 0.00808692 125 4 1 5.20201e-07 
-0.246164 -0.535705 -1.76842 0.0025 0.622131 0.514567 2.06776 0.00803689 126 4 1 5.01906e-07 
-0.242158 -0.529141 -1.75789 0.0025 0.625937 0.51898 2.07281 0.00798803 127 4 1 5.13228e-07 
-0.238176 -0.52265 -1.75803 0.0025 0.629719 0.523376 2.07781 0.00794005 128 4 1 4.96816e-07 
-0.234218 -0.516217 -1.74319 0.0025 0.633475 0.527751 2.08276 0.00789297 129 4 1 4.7671e-07 
-0.230283 -0.509891 -1.73351 0.0025 0.6372 0.532101 2.08765 0.00784683 130 4 1 4.8465e-07 
-0.226371 -0.50362 -1.73501 0.0025 0.640907 0.53644 2.0925 0.00780145 131 4 1 4.88931e-07 
-0.222482 -0.497386 -1.73664 0.0025 0.644606 0.54078 2.09732 0.00775668 132 4 1 4.78486e-07 
-0.218614 -0.491205 -1.73302 0.0025 0.648295 0.545117 2.10211 0.00771254 133 4 1 4.7187e-07 
-0.214769 -0.48506 -1.73259 0.0025 0.651975 0.549454 2.10687 0.00766901 134 4 1 4.85854e-07 
-0.210945 -0.478952 -1.74471 0.0025 0.655659 0.553806 2.11163 0.00762592 135 4 1 5.04481e-07 
-0.207143 -0.472816 -1.76184 0.0025 0.659363 0.558191 2.11639 0.00758308 136 4 1 5.09331e-07 
-0.203362 -0.466673 -1.77629 0.0025 0.663091 0.562615 2.12117 0.00754045 137 4 1 5.13378e-07 
-0.199602 -0.46052 -1.79369 0.0025 0.666844 0.567078 2.12596 0.00749801 138 4 1 5.16502e-07 
-0.195864 -0.454339 -1.80852 0.0025 0.670623 0.571583 2.13077 0.00745575 139 4 1 5.236e-07 
-0.192147 -0.448168 -1.82861 0.0025 0.674433 0.576134 2.13561 0.00741364 140 4 1 5.53044e-07 
-0.18845 -0.441918 -1.86719 0.0025 0.67829 0.580753 2.14048 0.00737148 141 4 1 5.56546e-07 
-0.184775 -0.435628 -1.88639 0.0025 0.682193 0.585435 2.1454 0.0073293 142 4 1 5.15172e-07 
-0.181121 -0.429344 -1.88204 0.0025 0.686108 0.590144 2.15032 0.00728748 143 4 1 5.14931e-07 
-0.177488 -0.423092 -1.90189 0.0025 0.690035 0.594878 2.15523 0.00724601 144 4 1 5.3687e-07 
-0.173875 -0.416801 -1.922 0.0025 0.693989 0.599656 2.16016 0.00720472 145 4 1 5.26245e-07 
-0.170283 -0.410528 -1.9311 0.0025 0.697963 0.604468 2.1651 0.0071637 146 4 1 5.0914e-07 
-0.166711 -0.404272 -1.93497 0.0025 0.701944 0.609299 2.17003 0.00712308 147 4 1 5.03615e-07 
-0.16316 -0.398064 -1.94192 0.0025 0.705929 0.614148 2.17495 0.00708287 148 4 1 5.09965e-07 
-0.159628 -0.391886 -1.95461 0.0025 0.709925 0.619021 2.17987 0.007043 149 4 1 5.16524e-07 
-0.156117 -0.385766 -1.96874 0.0025 0.713939 0.623926 2.18479 0.0070034 150 4 1 5.19154e-07 
-0.152625 -0.379724 -1.98209 0.0025 0.717973 0.628867 2.18972 0.00696405 151 4 1 5.2577e-07 
-0.149153 -0.373769 -1.99895 0.0025 0.722032 0.633851 2.19466 0.0069249 152 4 1 5.4965e-07 
-0.1457 -0.367936 -2.02907 0.0025 0.726133 0.638899 2.19964 0.00688579 153 4 1 6.03439e-07 
-0.142267 -0.362231 -2.08618 0.0025 0.730311 0.644053 2.20469 0.00684639 154 4 1 6.46059e-07 
-0.138853 -0.356703 -2.13892 0.0025 0.734591 0.649343 2.20985 0.00680651 155 4 1 6.94834e-07 
-0.13546 -0.351421 -2.2163 0.0025 0.738993 0.654799 2.21514 0.00676596 156 4 1 7.6461e-07 
-0.132087 -0.346374 -2.30725 0.0025 0.74355 0.66046 2.22059 0.0067245 157 4 1 8.12402e-07 
-0.128736 -0.341672 -2.39562 0.0025 0.748275 0.666344 2.22622 0.00668203 158 4 1 8.72374e-07 
-0.125405 -0.337327 -2.50689 0.0025 0.753182 0.672469 2.23205 0.0066385 159 4 1 9.17583e-07 
-0.122097 -0.333233 -2.60481 0.0025 0.758271 0.678837 2.23807 0.00659395 160 4 1 8.73777e-07 
-0.118811 -0.329312 -2.64016 0.0025 0.763481 0.685373 2.24421 0.00654895 161 4 1 8.19822e-07 
-0.115548 -0.325544 -2.65927 0.0025 0.768755 0.692011 2.2504 0.00650403 162 4 1 8.79891e-07 
-0.112307 -0.321955 -2.74473 0.0025 0.774128 0.698796 2.25667 0.00645888 163 4 1 1.03959e-06 
-0.109089 -0.318746 -2.92528 0.0025 0.779699 0.705843 2.26315 0.00641273 164 4 1 1.01126e-06 
-0.105894 -0.315857 -2.98976 0.0025 0.7854 0.71306 2.26977 0.00636618 165 4 1 4.15646e-07 
-0.102723 -0.312461 -2.60146 0.0025 0.79077 0.719873 2.27598 0.00632295 166 4 1 -3.81999e-07 
-0.0995713 -0.307669 -1.94436 0.0025 0.795287 0.725647 2.28117 0.00628704 167 4 1 -2.41171e-07 
-0.0964356 -0.301883 -1.89905 0.0025 0.799199 0.730679 2.28563 0.00625626 168 4 1 6.04348e-07 
-0.093315 -0.296705 -2.33262 0.0025 0.803235 0.73583 2.29023 0.00622483 169 4 1 2.19659e-07 
-0.0902107 -0.291724 -1.88379 0.0025 0.807043 0.740661 2.29461 0.00619546 170 4 1 -1.5076e-06 
-0.0871195 -0.283891 -0.358979 0.0025 0.809252 0.743509 2.29714 0.00617854 171 4 1 -1.66467e-06 
-0.0840322 -0.272965 0.183076 0.0025 0.809888 0.744416 2.29781 0.00617369 172 4 1 5.82545e-07 
-0.0809458 -0.263455 -1.22126 0.0025 0.811056 0.74594 2.29909 0.0061648 173 4 1 1.63349e-06 
-0.0778674 -0.257103 -1.79395 0.0025 0.813509 0.748998 2.30192 0.00614621 174 4 1 -9.79042e-07 
-0.0747995 -0.248826 0.115908 0.0025 0.814945 0.750825 2.3036 0.00613539 175 3 1 -2.11103e-06 
-0.071732 -0.236248 0.928543 0.0025 0.81445 0.750302 2.30298 0.00613911 176 5 1 6.41262e-07 
-0.0686604 -0.225163 -0.86215 0.0025 0.814603 0.750522 2.3031 0.00613796 177 4 1 1.87483e-06 
-0.065594 -0.217986 -1.40457 0.0025 0.816343 0.752662 2.30511 0.00612488 178 4 1 -7.88907e-07 
-0.0625355 -0.208964 0.249256 0.0025 0.817318 0.753914 2.30626 0.00611757 179 3 1 -1.47023e-06 
-0.0594765 -0.19698 0.466347 0.0025 0.816989 0.753571 2.30584 0.00612004 180 5 1 6.68192e-07 
-0.0564155 -0.18688 -0.696997 0.0025 0.817256 0.753904 2.30612 0.00611803 181 4 1 7.45774e-07 
-0.0533584 -0.178043 -0.452292 0.0025 0.818138 0.754993 2.30715 0.00611144 182 4 1 -6.77658e-07 
-0.0503041 -0.16754 0.198895 0.0025 0.818426 0.755391 2.30748 0.00610929 183 4 1 -2.42508e-07 
-0.0472491 -0.156921 -0.162923 0.0025 0.818509 0.755517 2.30755 0.00610867 184 4 1 4.05611e-07 
-0.0441954 -0.147229 -0.325644 0.0025 0.818932 0.756046 2.30803 0.00610551 185 4 1 1.19716e-08 
-0.0411436 -0.137406 -0.186186 0.0025 0.819366 0.7566 2.30853 0.00610228 186 4 1 -2.10258e-07 
-0.0380931 -0.127398 -0.0499573 0.0025 0.819591 0.756891 2.30878 0.0061006 187 3 1 -2.40675e-07 
-0.035043 -0.116729 0.138077 0.0025 0.81958 0.756891 2.30877 0.00610069 188 5 1 6.56448e-08 
-0.0319924 -0.106083 -0.170945 0.0025 0.819658 0.757001 2.30884 0.00610011 189 4 1 3.98867e-07 
-0.0289429 -0.0965955 -0.370079 0.0025 0.820084 0.757528 2.30933 0.00609693 190 4 1 -1.81249e-07 
-0.0258955 -0.0866479 0.0876628 0.0025 0.820332 0.75785 2.30962 0.0060951 191 4 1 -2.82277e-07 
-0.0228478 -0.0761663 -0.0231902 0.0025 0.820332 0.757865 2.30961 0.00609509 192 4 1 1.04807e-07 
-0.0198004 -0.066213 -0.0595612 0.0025 0.820416 0.75797 2.30971 0.00609447 193 4 1 8.22224e-08 
-0.0167534 -0.05601 -0.117504 0.0025 0.820557 0.75815 2.30988 0.00609342 194 4 1 -1.10585e-07 
-0.013707 -0.0454458 0.0777549 0.0025 0.820611 0.758225 2.30994 0.00609302 195 4 1 -5.49035e-09 
-0.0106603 -0.0353897 -0.121937 0.0025 0.820669 0.758305 2.31001 0.00609259 196 4 1 1.39472e-07 
-0.00761439 -0.0256716 -0.0996666 0.0025 0.820834 0.758511 2.31021 0.00609136 197 4 1 -1.39894e-07 
-0.00456897 -0.0155665 0.0678651 0.0025 0.820859 0.758546 2.31025 0.00609118 198 3 1 -1.96223e-07 
-0.00152321 -0.00497529 0.133753 0.0025 0.820724 0.758382 2.31009 0.00609219 199 4 1 1.55658e-07 
0.00152321 0.00497529 -0.133753 0.0025 0.820724 0.758382 2.31009 0.00609219 200 4 1 1.55658e-07 
0.00456897 0.0155665 -0.0678651 0.0025 0.820859 0.758546 2.31025 0.00609118 201 3 1 -1.96223e-07 
0.00761439 0.0256716 0.0996666 0.0025 0.820834 0.758511 2.31021 0.00609136 202 4 1 -1.39894e-07 
0.0106603 0.0353897 0.121937 0.0025 0.820669 0.758305 2.31001 0.00609259 203 4 1 1.39472e-07 
0.013707 0.0454458 -0.0777549 0.0025 0.820611 0.758225 2.30994 0.00609302 204 4 1 -5.49035e-09 
0.0167534 0.05601 0.117504 0.0025 0.820557 0.75815 2.30988 0.00609342 205 4 1 -1.10585e-07 
0.0198004 0.066213 0.0595612 0.0025 0.820416 0.75797 2.30971 0.00609447 206 4 1 8.22224e-08 
0.0228478 0.0761663 0.0231902 0.0025 0.820332 0.757865 2.30961 0.00609509 207 4 1 1.04807e-07 
0.0258955 0.0866479 -0.0876628 0.0025 0.820332 0.75785 2.30962 0.0060951 208 4 1 -2.82277e-07 
0.0289429 0.0965955 0.370079 0.0025 0.820084 0.757528 2.30933 0.00609693 209 4 1 -1.81249e-07 
0.0319924 0.106083 0.170945 0.0025 0.819658 0.757001 2.30884 0.00610011 210 4 1 3.98867e-07 
