# Time [s]: 0.471425
# Columns: pos [m], vel [m/s], acc [m/s^2], mass [kg], dens [kg/m^3], pres [Pa], ene [J/kg], sml [m], id, neighbor, alpha, gradh, ...additional?
1.18491 -0.673079 -0.000423343 0.0025 0.511061 0.432739 2.15252 0.00978356 0 4 1 -0.000134223 
1.18969 -0.673079 -0.000365392 0.0025 0.53692 0.426202 1.95006 0.00931238 1 4 1 0.000179254 
1.19423 -0.673079 -0.000238017 0.0025 0.548251 0.430873 1.96852 0.00911992 2 3 1 -1.90585e-05 
1.19881 -0.67308 -0.000201969 0.0025 0.545986 0.42921 1.96466 0.00915774 3 5 1 3.48556e-06 
1.20339 -0.673081 -0.000239734 0.0025 0.546385 0.429366 1.9646 0.00915105 4 4 1 -1.38543e-07 
1.20797 -0.673082 -0.000307089 0.0025 0.546397 0.429337 1.96437 0.00915085 5 4 1 1.43926e-07 
1.21254 -0.673084 -0.000385806 0.0025 0.546421 0.429337 1.96431 0.00915045 6 4 1 -3.28901e-09 
1.21712 -0.673087 -0.000466908 0.0025 0.546436 0.429336 1.96425 0.00915021 7 4 1 8.46457e-09 
1.22169 -0.673089 -0.000541999 0.0025 0.546451 0.429336 1.9642 0.00914995 8 4 1 4.97812e-09 
1.22627 -0.673092 -0.000601698 0.0025 0.546465 0.429338 1.96416 0.00914971 9 4 1 5.64987e-09 
1.23084 -0.673095 -0.000636932 0.0025 0.546478 0.429339 1.96412 0.00914949 10 4 1 -2.12963e-09 
1.23542 -0.673099 -0.000640803 0.0025 0.546491 0.429341 1.96408 0.00914928 11 4 1 4.75699e-09 
1.23999 -0.673102 -0.000610144 0.0025 0.546503 0.429342 1.96404 0.00914908 12 4 1 2.78969e-09 
1.24456 -0.673105 -0.000546263 0.0025 0.546514 0.429344 1.96401 0.0091489 13 4 1 3.42488e-09 
1.24914 -0.673108 -0.000454701 0.0025 0.546523 0.429345 1.96398 0.00914874 14 4 1 1.90273e-09 
1.25371 -0.673111 -0.000344092 0.0025 0.546532 0.429346 1.96396 0.0091486 15 4 1 -1.84556e-09 
1.25829 -0.673113 -0.000224493 0.0025 0.54654 0.429347 1.96393 0.00914846 16 4 1 4.61882e-09 
1.26286 -0.673115 -0.000105632 0.0025 0.546547 0.429347 1.96391 0.00914834 17 4 1 1.2037e-09 
1.26744 -0.673116 4.48799e-06 0.0025 0.546554 0.429348 1.96389 0.00914823 18 4 1 -1.44509e-09 
1.27201 -0.673117 0.000100395 0.0025 0.54656 0.429348 1.96386 0.00914813 19 4 1 2.49011e-09 
1.27658 -0.673118 0.000179322 0.0025 0.546565 0.429347 1.96384 0.00914805 20 4 1 1.00923e-09 
1.28116 -0.673118 0.000240905 0.0025 0.546569 0.429347 1.96383 0.00914797 21 4 1 1.08244e-09 
1.28573 -0.673118 0.000286169 0.0025 0.546573 0.429346 1.96381 0.0091479 22 4 1 9.96345e-10 
1.29031 -0.673118 0.000315103 0.0025 0.546577 0.429346 1.96379 0.00914785 23 4 1 -1.90754e-10 
1.29488 -0.673118 0.000340619 0.0025 0.54658 0.429345 1.96378 0.00914779 24 4 1 1.49529e-09 
1.29945 -0.673118 0.000356026 0.0025 0.546583 0.429344 1.96376 0.00914774 25 4 1 7.83894e-10 
1.30403 -0.673118 0.000361292 0.0025 0.546586 0.429343 1.96375 0.0091477 26 4 1 -2.90143e-10 
1.3086 -0.673118 0.00036419 0.0025 0.546588 0.429342 1.96374 0.00914766 27 4 1 1.31291e-09 
1.31318 -0.673118 0.000364334 0.0025 0.54659 0.429341 1.96372 0.00914762 28 4 1 9.68782e-10 
1.31775 -0.673119 0.000362159 0.0025 0.546592 0.42934 1.96371 0.00914759 29 4 1 -6.57222e-10 
1.32232 -0.673119 0.000358383 0.0025 0.546594 0.429339 1.9637 0.00914755 30 4 1 6.1543e-10 
1.3269 -0.67312 0.000353934 0.0025 0.546596 0.429338 1.96369 0.00914752 31 4 1 2.07055e-09 
1.33147 -0.67312 0.000350121 0.0025 0.546597 0.429337 1.96368 0.0091475 32 4 1 -7.65078e-10 
1.33604 -0.673121 0.000348749 0.0025 0.546599 0.429336 1.96367 0.00914748 33 4 1 -7.51024e-10 
1.34062 -0.673122 0.00035201 0.0025 0.5466 0.429335 1.96366 0.00914745 34 4 1 2.17608e-09 
1.34519 -0.673124 0.000362008 0.0025 0.546601 0.429335 1.96365 0.00914743 35 4 1 -1.69157e-10 
1.34977 -0.673125 0.000379986 0.0025 0.546602 0.429334 1.96365 0.00914742 36 4 1 -8.55777e-10 
1.35434 -0.673126 0.000405652 0.0025 0.546603 0.429333 1.96364 0.0091474 37 4 1 1.43732e-09 
1.35891 -0.673128 0.000437163 0.0025 0.546604 0.429331 1.96363 0.00914739 38 4 1 9.98283e-11 
1.36349 -0.67313 0.000472065 0.0025 0.546605 0.42933 1.96362 0.00914738 39 4 1 -7.24914e-10 
1.36806 -0.673131 0.000508799 0.0025 0.546605 0.429329 1.96362 0.00914737 40 4 1 7.21456e-10 
1.37263 -0.673133 0.000547764 0.0025 0.546605 0.429328 1.96361 0.00914737 41 4 1 4.50901e-10 
1.37721 -0.673135 0.000590989 0.0025 0.546605 0.429326 1.9636 0.00914737 42 3 1 -6.21199e-10 
1.38178 -0.673137 0.000640349 0.0025 0.546605 0.429325 1.9636 0.00914737 43 4 1 -9.92911e-12 
1.38636 -0.673139 0.000695428 0.0025 0.546605 0.429323 1.96359 0.00914737 44 4 1 9.56503e-10 
1.39093 -0.673141 0.00075265 0.0025 0.546605 0.429321 1.96358 0.00914738 45 4 1 -3.79998e-10 
1.3955 -0.673144 0.000806668 0.0025 0.546604 0.429319 1.96358 0.00914739 46 4 1 -7.19101e-10 
1.40008 -0.673146 0.000853444 0.0025 0.546603 0.429317 1.96357 0.0091474 47 4 1 6.10563e-10 
1.40465 -0.673149 0.000893143 0.0025 0.546602 0.429315 1.96356 0.00914742 48 4 1 3.11323e-10 
1.40922 -0.673152 0.000930869 0.0025 0.546601 0.429312 1.96355 0.00914744 49 4 1 -5.70424e-10 
1.4138 -0.673155 0.000974551 0.0025 0.5466 0.42931 1.96355 0.00914746 50 4 1 -2.68703e-10 
1.41837 -0.673159 0.00103107 0.0025 0.546598 0.429307 1.96354 0.00914748 51 4 1 6.41587e-10 
1.42294 -0.673163 0.00110279 0.0025 0.546597 0.429305 1.96353 0.00914751 52 4 1 -1.1431e-10 
1.42752 -0.673167 0.00118636 0.0025 0.546595 0.429302 1.96353 0.00914754 53 4 1 -8.87732e-10 
1.43209 -0.673172 0.0012745 0.0025 0.546593 0.429298 1.96352 0.00914757 54 4 1 -5.07842e-11 
1.43667 -0.673177 0.00136017 0.0025 0.546591 0.429295 1.96351 0.00914761 55 4 1 5.60897e-10 
1.44124 -0.673182 0.0014413 0.0025 0.546588 0.429291 1.9635 0.00914765 56 4 1 -4.59228e-10 
1.44581 -0.673188 0.00152375 0.0025 0.546586 0.429287 1.9635 0.0091477 57 4 1 -8.5734e-10 
1.45039 -0.673194 0.00161984 0.0025 0.546583 0.429283 1.96349 0.00914775 58 4 1 3.28252e-10 
1.45496 -0.673201 0.00174187 0.0025 0.546579 0.429279 1.96348 0.0091478 59 4 1 -1.45417e-11 
1.45954 -0.673209 0.00189368 0.0025 0.546576 0.429274 1.96347 0.00914786 60 4 1 -7.93221e-10 
1.46411 -0.673217 0.00206616 0.0025 0.546572 0.429269 1.96346 0.00914793 61 4 1 -6.55325e-10 
1.46868 -0.673226 0.00224195 0.0025 0.546567 0.429264 1.96345 0.009148 62 4 1 -2.03116e-11 
1.47326 -0.673235 0.00240855 0.0025 0.546563 0.429258 1.96344 0.00914808 63 4 1 -3.60396e-10 
1.47783 -0.673246 0.00257111 0.0025 0.546557 0.429251 1.96343 0.00914817 64 4 1 -7.9866e-10 
1.48241 -0.673257 0.00275378 0.0025 0.546552 0.429244 1.96342 0.00914827 65 4 1 -4.65551e-10 
1.48698 -0.67327 0.00298559 0.0025 0.546545 0.429236 1.96341 0.00914837 66 4 1 -5.01535e-10 
1.49155 -0.673284 0.00327932 0.0025 0.546538 0.429228 1.96339 0.00914849 67 4 1 -8.9013e-10 
1.49613 -0.673299 0.00362063 0.0025 0.546531 0.429219 1.96338 0.00914861 68 4 1 -1.0678e-09 
-0.499297 -0.673315 0.00397904 0.0025 0.546522 0.429209 1.96337 0.00914876 69 4 1 -8.34737e-10 
-0.494723 -0.673333 0.0043348 0.0025 0.546513 0.429198 1.96335 0.00914891 70 4 1 -1.04193e-09 
-0.490149 -0.673353 0.00470051 0.0025 0.546503 0.429187 1.96333 0.00914909 71 4 1 -1.29364e-09 
-0.485574 -0.673375 0.00511801 0.0025 0.546491 0.429174 1.96331 0.00914928 72 4 1 -1.19165e-09 
-0.480999 -0.673399 0.0056318 0.0025 0.546479 0.429159 1.96329 0.00914948 73 4 1 -1.4582e-09 
-0.476424 -0.673426 0.00626176 0.0025 0.546465 0.429144 1.96327 0.00914972 74 4 1 -1.94917e-09 
-0.47185 -0.673456 0.00699723 0.0025 0.54645 0.429126 1.96325 0.00914997 75 4 1 -2.21236e-09 
-0.467274 -0.673488 0.00781244 0.0025 0.546432 0.429107 1.96322 0.00915026 76 4 1 -2.37363e-09 
-0.462699 -0.673524 0.0086866 0.0025 0.546413 0.429085 1.96319 0.00915059 77 4 1 -2.56409e-09 
-0.458124 -0.673565 0.00961782 0.0025 0.546391 0.429061 1.96316 0.00915095 78 4 1 -2.83522e-09 
-0.453548 -0.67361 0.0106305 0.0025 0.546367 0.429034 1.96312 0.00915135 79 4 1 -3.09521e-09 
-0.448973 -0.67366 0.0117728 0.0025 0.546341 0.429004 1.96308 0.0091518 80 4 1 -3.42062e-09 
-0.444397 -0.673717 0.0130988 0.0025 0.546311 0.428971 1.96304 0.0091523 81 4 1 -3.90956e-09 
-0.43982 -0.67378 0.0146391 0.0025 0.546278 0.428934 1.96299 0.00915285 82 4 1 -4.41451e-09 
-0.435244 -0.673849 0.0163666 0.0025 0.546241 0.428894 1.96293 0.00915346 83 4 1 -4.7517e-09 
-0.430667 -0.673925 0.0181734 0.0025 0.5462 0.428848 1.96287 0.00915415 84 4 1 -4.8056e-09 
-0.42609 -0.674009 0.0199056 0.0025 0.546156 0.428799 1.96281 0.0091549 85 4 1 -4.48759e-09 
-0.421512 -0.6741 0.0214914 0.0025 0.546107 0.428745 1.96273 0.00915572 86 4 1 -4.00544e-09 
-0.416934 -0.6742 0.0230267 0.0025 0.546054 0.428687 1.96266 0.0091566 87 4 1 -3.55527e-09 
-0.412355 -0.674307 0.0245961 0.0025 0.545999 0.428626 1.96258 0.00915753 88 4 1 -3.11561e-09 
-0.407776 -0.67442 0.0259946 0.0025 0.545941 0.428562 1.96249 0.0091585 89 4 1 -2.02929e-09 
-0.403197 -0.674536 0.0268475 0.0025 0.545881 0.428495 1.9624 0.00915951 90 4 1 -1.17732e-10 
-0.398617 -0.674653 0.0269682 0.0025 0.54582 0.428429 1.96232 0.00916053 91 4 1 1.94942e-09 
-0.394036 -0.674768 0.0263196 0.0025 0.545761 0.428364 1.96223 0.00916152 92 4 1 4.54452e-09 
-0.389455 -0.674878 0.0248613 0.0025 0.545706 0.428303 1.96215 0.00916245 93 4 1 7.40813e-09 
-0.384874 -0.674977 0.0224469 0.0025 0.545656 0.428249 1.96208 0.00916328 94 4 1 1.00728e-08 
-0.380292 -0.675061 0.0184735 0.0025 0.545615 0.428203 1.96202 0.00916397 95 4 1 1.45151e-08 
-0.37571 -0.675125 0.0127289 0.0025 0.545586 0.428171 1.96198 0.00916446 96 4 1 1.45239e-08 
-0.371128 -0.675163 0.00816038 0.0025 0.545569 0.428152 1.96195 0.00916475 97 4 1 1.95469e-08 
-0.366545 -0.675189 0.00108548 0.0025 0.545568 0.428153 1.96195 0.00916476 98 5 1 4.6571e-08 
-0.361963 -0.675121 -0.0250744 0.0025 0.545606 0.428196 1.962 0.00916411 99 4 1 7.28325e-08 
-0.357381 -0.67496 -0.047271 0.0025 0.545706 0.428308 1.96215 0.00916244 100 4 1 1.53166e-07 
-0.3528 -0.674593 -0.127319 0.0025 0.545933 0.428562 1.96247 0.00915864 101 4 1 3.10203e-07 
-0.348222 -0.673716 -0.272089 0.0025 0.546405 0.429085 1.96315 0.00915072 102 4 1 4.15444e-07 
-0.34365 -0.672198 -0.417755 0.0025 0.547195 0.429954 1.96428 0.0091375 103 4 1 4.5107e-07 
-0.339085 -0.67009 -0.554158 0.0025 0.548309 0.431182 1.96588 0.00911894 104 4 1 5.34861e-07 
-0.334531 -0.667316 -0.725483 0.0025 0.549779 0.432803 1.96799 0.00909457 105 4 1 6.88944e-07 
-0.32999 -0.663737 -0.936489 0.0025 0.551671 0.434893 1.97069 0.00906337 106 4 1 8.2538e-07 
-0.325467 -0.659237 -1.1527 0.0025 0.554024 0.43749 1.97405 0.00902488 107 4 1 8.62165e-07 
-0.320965 -0.653934 -1.32201 0.0025 0.55679 0.440546 1.97799 0.00898004 108 4 1 7.96109e-07 
-0.316487 -0.648087 -1.42588 0.0025 0.559857 0.443942 1.98234 0.00893085 109 4 1 6.95378e-07 
-0.312034 -0.641962 -1.47801 0.0025 0.563105 0.447549 1.98693 0.00887934 110 4 1 6.50473e-07 
-0.307608 -0.635686 -1.52577 0.0025 0.566472 0.451299 1.99168 0.00882657 111 4 1 6.67936e-07 
-0.303208 -0.629231 -1.57574 0.0025 0.569948 0.455182 1.99656 0.00877274 112 4 1 7.28524e-07 
-0.298835 -0.622564 -1.64935 0.0025 0.573553 0.459219 2.0016 0.00871759 113 4 1 7.91165e-07 
-0.29449 -0.615655 -1.72216 0.0025 0.577306 0.463431 2.00683 0.00866092 114 4 1 8.21444e-07 
-0.290174 -0.608515 -1.7911 0.0025 0.5812 0.467812 2.01223 0.00860289 115 4 1 8.12946e-07 
-0.285887 -0.601193 -1.83517 0.0025 0.585205 0.47233 2.01777 0.00854401 116 4 1 7.76444e-07 
-0.28163 -0.593798 -1.86259 0.0025 0.589279 0.476938 2.02337 0.00848494 117 4 1 7.34781e-07 
-0.277402 -0.586384 -1.87279 0.0025 0.593385 0.481595 2.029 0.00842623 118 4 1 6.87293e-07 
-0.273203 -0.579019 -1.86994 0.0025 0.59749 0.486264 2.0346 0.00836835 119 4 1 6.44143e-07 
-0.269034 -0.57174 -1.8588 0.0025 0.60157 0.490919 2.04015 0.00831158 120 4 1 6.03405e-07 
-0.264892 -0.564579 -1.83937 0.0025 0.605609 0.495539 2.04562 0.00825615 121 4 1 5.70069e-07 
-0.260777 -0.557556 -1.81817 0.0025 0.609597 0.500114 2.051 0.00820214 122 4 1 5.63504e-07 
-0.25669 -0.550646 -1.81039 0.0025 0.613544 0.504653 2.0563 0.00814938 123 4 1 5.65622e-07 
-0.252628 -0.5438 -1.80602 0.0025 0.617463 0.509171 2.06154 0.00809765 124 4 1 5.31124e-07 
-0.248592 -0.537062 -1.78122 0.0025 0.621342 0.513654 2.06671 0.0080471 125 4 1 5.11014e-07 
-0.244581 -0.530449 -1.7717 0.0025 0.625178 0.5181 2.0718 0.00799772 126 4 1 5.18335e-07 
-0.240594 -0.523906 -1.76736 0.0025 0.628987 0.522525 2.07684 0.00794929 127 4 1 5.0734e-07 
-0.236631 -0.517422 -1.7589 0.0025 0.632772 0.526931 2.08183 0.00790174 128 4 1 4.8288e-07 
-0.232692 -0.511044 -1.74198 0.0025 0.636523 0.53131 2.08676 0.00785517 129 4 1 4.85304e-07 
-0.228776 -0.504725 -1.74467 0.0025 0.640252 0.535673 2.09164 0.00780942 130 4 1 4.96832e-07 
-0.224883 -0.498448 -1.74643 0.0025 0.643974 0.540037 2.0965 0.00776429 131 4 1 4.84155e-07 
-0.221012 -0.492219 -1.74228 0.0025 0.647685 0.544399 2.10132 0.00771981 132 4 1 4.79949e-07 
-0.217163 -0.48604 -1.74418 0.0025 0.651387 0.548761 2.10611 0.00767593 133 4 1 4.87331e-07 
-0.213336 -0.479892 -1.75004 0.0025 0.655091 0.553135 2.1109 0.00763253 134 4 1 5.09576e-07 
-0.20953 -0.473726 -1.77274 0.0025 0.658813 0.557541 2.11569 0.0075894 135 4 1 5.16794e-07 
-0.205746 -0.46755 -1.78377 0.0025 0.662561 0.561986 2.12049 0.00754647 136 4 1 5.14864e-07 
-0.201984 -0.46136 -1.80113 0.0025 0.666332 0.566469 2.12531 0.00750377 137 4 1 5.24633e-07 
-0.198242 -0.455152 -1.81867 0.0025 0.67013 0.570995 2.13015 0.00746123 138 4 1 5.25373e-07 
-0.194522 -0.448936 -1.83314 0.0025 0.673957 0.575565 2.135 0.00741887 139 4 1 5.59485e-07 
-0.190823 -0.44266 -1.87814 0.0025 0.677832 0.580204 2.13991 0.00737646 140 4 1 5.63816e-07 
-0.187146 -0.436329 -1.89294 0.0025 0.681754 0.584908 2.14485 0.00733402 141 4 1 5.2525e-07 
-0.183489 -0.430006 -1.89671 0.0025 0.685692 0.589643 2.1498 0.0072919 142 4 1 5.22103e-07 
-0.179854 -0.42372 -1.90962 0.0025 0.689642 0.594404 2.15474 0.00725014 143 4 1 5.40954e-07 
-0.176239 -0.417389 -1.93423 0.0025 0.693618 0.599207 2.1597 0.00720858 144 4 1 5.30832e-07 
-0.172645 -0.411068 -1.93834 0.0025 0.697613 0.604043 2.16467 0.0071673 145 4 1 5.13484e-07 
-0.169072 -0.404766 -1.94645 0.0025 0.701613 0.608898 2.16962 0.00712643 146 4 1 5.0677e-07 
-0.165519 -0.398506 -1.94868 0.0025 0.705617 0.613767 2.17457 0.007086 147 4 1 5.05225e-07 
-0.161986 -0.392269 -1.95919 0.0025 0.709624 0.618652 2.1795 0.00704599 148 4 1 5.03355e-07 
-0.158473 -0.386067 -1.96326 0.0025 0.713636 0.623555 2.18442 0.00700637 149 4 1 4.97139e-07 
-0.154979 -0.379916 -1.96972 0.0025 0.717652 0.628474 2.18933 0.00696716 150 4 1 5.02388e-07 
-0.151505 -0.373838 -1.98051 0.0025 0.721678 0.633415 2.19423 0.0069283 151 4 1 5.11141e-07 
-0.148051 -0.367842 -1.99484 0.0025 0.725722 0.638391 2.19914 0.00688969 152 4 1 5.35721e-07 
-0.144616 -0.361916 -2.02537 0.0025 0.729803 0.643422 2.20408 0.00685116 153 4 1 5.56875e-07 
-0.1412 -0.356083 -2.05273 0.0025 0.733934 0.648528 2.20906 0.0068126 154 4 1 5.88161e-07 
-0.137803 -0.350415 -2.10052 0.0025 0.738134 0.653731 2.21411 0.00677384 155 4 1 6.4369e-07 
-0.134426 -0.344908 -2.16524 0.0025 0.742434 0.659069 2.21926 0.00673461 156 4 1 6.7372e-07 
-0.131068 -0.339658 -2.21787 0.0025 0.746846 0.664561 2.22452 0.00669482 157 4 1 7.37331e-07 
-0.127731 -0.334688 -2.31396 0.0025 0.7514 0.670243 2.22994 0.00665424 158 4 1 8.39765e-07 
-0.124414 -0.32998 -2.43521 0.0025 0.756149 0.676181 2.23556 0.00661246 159 4 1 8.82807e-07 
-0.121118 -0.325584 -2.53365 0.0025 0.761092 0.682376 2.2414 0.00656951 160 4 1 8.70001e-07 
-0.117845 -0.321518 -2.60261 0.0025 0.766187 0.688778 2.24739 0.00652582 161 4 1 8.4462e-07 
-0.114593 -0.317664 -2.64816 0.0025 0.771389 0.695333 2.25348 0.00648181 162 4 1 8.28522e-07 
-0.111363 -0.313932 -2.68112 0.0025 0.77667 0.702008 2.25964 0.00643774 163 4 1 8.90224e-07 
-0.108155 -0.310302 -2.77389 0.0025 0.782066 0.708849 2.2659 0.00639332 164 4 1 1.02396e-06 
-0.104969 -0.306952 -2.93809 0.0025 0.787655 0.715947 2.27237 0.00634796 165 4 1 9.66345e-07 
-0.101807 -0.304018 -2.98222 0.0025 0.793353 0.723191 2.27893 0.00630236 166 4 1 4.72789e-07 
-0.0986668 -0.300843 -2.67657 0.0025 0.798767 0.730089 2.28515 0.00625964 167 4 1 -2.8068e-07 
-0.095547 -0.296304 -2.03363 0.0025 0.803395 0.736022 2.29044 0.00622359 168 4 1 -3.37118e-07 
-0.0924432 -0.290519 -1.84472 0.0025 0.807331 0.741106 2.29491 0.00619325 169 4 1 4.93344e-07 
-0.0893537 -0.285047 -2.29408 0.0025 0.811313 0.74622 2.29942 0.00616285 170 4 1 4.18894e-07 
-0.0862803 -0.280128 -2.0641 0.0025 0.815239 0.751221 2.30389 0.00613317 171 4 1 -1.26684e-06 
-0.0832205 -0.273056 -0.584673 0.0025 0.817745 0.754447 2.30675 0.00611437 172 4 1 -1.86106e-06 
-0.0801659 -0.262479 0.293145 0.0025 0.818464 0.75546 2.30752 0.00610901 173 4 1 1.46356e-07 
-0.0771115 -0.252309 -0.908286 0.0025 0.81934 0.756636 2.30845 0.00610247 174 4 1 1.79137e-06 
-0.0740634 -0.24559 -1.94093 0.0025 0.821684 0.759579 2.31113 0.00608506 175 4 1 -3.67875e-07 
-0.0710264 -0.238055 -0.321181 0.0025 0.823528 0.761909 2.31327 0.00607144 176 3 1 -2.31201e-06 
-0.067992 -0.226015 1.08915 0.0025 0.823227 0.761622 2.3129 0.00607366 177 4 1 -1.57221e-08 
-0.0649528 -0.214293 -0.45781 0.0025 0.822988 0.76137 2.31255 0.00607542 178 5 1 2.04901e-06 
-0.0619166 -0.206733 -1.53724 0.0025 0.824528 0.763268 2.31431 0.00606408 179 4 1 -2.26579e-07 
-0.0588887 -0.198456 -0.050651 0.0025 0.825791 0.76487 2.31579 0.0060548 180 3 1 -1.62386e-06 
-0.0558618 -0.186687 0.580179 0.0025 0.825598 0.7647 2.31554 0.00605622 181 5 1 2.93585e-07 
-0.0528325 -0.176011 -0.533847 0.0025 0.825683 0.764817 2.3156 0.00605559 182 4 1 8.92161e-07 
-0.0498062 -0.167237 -0.554704 0.0025 0.826513 0.76584 2.31656 0.00604951 183 4 1 -5.09488e-07 
-0.046783 -0.15714 0.160418 0.0025 0.826885 0.766337 2.31699 0.00604679 184 4 1 -3.93733e-07 
-0.0437594 -0.146478 -0.0604093 0.0025 0.82692 0.766407 2.31701 0.00604654 185 4 1 3.54516e-07 
-0.0407364 -0.136682 -0.305599 0.0025 0.827259 0.766836 2.31739 0.00604406 186 4 1 1.62184e-07 
-0.0377153 -0.126833 -0.277685 0.0025 0.827744 0.767455 2.31794 0.00604052 187 4 1 -1.52467e-07 
-0.0346959 -0.116832 -0.108608 0.0025 0.828074 0.767876 2.31831 0.00603811 188 3 1 -3.64453e-07 
-0.0316772 -0.106369 0.215488 0.0025 0.828044 0.767852 2.31828 0.00603833 189 4 1 -6.49371e-08 
-0.0286576 -0.0956983 -0.0576833 0.0025 0.827977 0.767783 2.31819 0.00603881 190 5 1 4.56663e-07 
-0.0256384 -0.086172 -0.382237 0.0025 0.828321 0.768206 2.31858 0.00603631 191 4 1 -6.03951e-08 
-0.0226213 -0.076414 0.0481801 0.0025 0.828603 0.76857 2.31891 0.00603426 192 4 1 -2.24557e-07 
-0.0196041 -0.0659058 -0.0948216 0.0025 0.828686 0.768692 2.319 0.00603365 193 4 1 7.17055e-08 
-0.0165876 -0.0556038 -0.0684985 0.0025 0.828826 0.768866 2.31916 0.00603263 194 4 1 -7.15735e-08 
-0.0135715 -0.0457192 0.00326967 0.0025 0.828881 0.768938 2.31923 0.00603223 195 3 1 -1.32248e-07 
-0.0105554 -0.0354028 0.112744 0.0025 0.828811 0.768859 2.31915 0.00603274 196 5 1 8.28589e-08 
-0.00753876 -0.0252342 -0.119457 0.0025 0.828832 0.768891 2.31918 0.00603259 197 4 1 1.87563e-07 
-0.0045228 -0.0154009 -0.135468 0.0025 0.829027 0.769134 2.31941 0.00603116 198 4 1 -8.48738e-08 
-0.0015076 -0.00546534 0.00788183 0.0025 0.829132 0.769274 2.31953 0.0060304 199 3 1 -1.14754e-07 
0.0015076 0.00546534 -0.00788183 0.0025 0.829132 0.769274 2.31953 0.0060304 200 3 1 -1.14754e-07 
0.0045228 0.0154009 0.135468 0.0025 0.829027 0.769134 2.31941 0.00603116 201 4 1 -8.48738e-08 
0.00753876 0.0252342 0.119457 0.0025 0.828832 0.768891 2.31918 0.00603259 202 4 1 1.87563e-07 
0.0105554 0.0354028 -0.112744 0.0025 0.828811 0.768859 2.31915 0.00603274 203 5 1 8.28589e-08 
0.0135715 0.0457192 -0.00326967 0.0025 0.828881 0.768938 2.31923 0.00603223 204 3 1 -1.32248e-07 
0.0165876 0.0556038 0.0684985 0.0025 0.828826 0.768866 2.31916 0.00603263 205 4 1 -7.15735e-08 
0.0196041 0.0659058 0.0948216 0.0025 0.828686 0.768692 2.319 0.00603365 206 4 1 7.17055e-08 
0.0226213 0.076414 -0.0481801 0.0025 0.828603 0.76857 2.31891 0.00603426 207 4 1 -2.24557e-07 
0.0256384 0.086172 0.382237 0.0025 0.828321 0.768206 2.31858 0.00603631 208 4 1 -6.03951e-08 
0.0286576 0.0956983 0.0576833 0.0025 0.827977 0.767783 2.31819 0.00603881 209 5 1 4.56663e-07 
0.0316772 0.106369 -0.215488 0.0025 0.828044 0.767852 2.31828 0.00603833 210 4 1 -6.49371e-08 
