# time [s] kinetic [J/kg] thermal [J/kg] potential [J/kg] total [J/kg]
0 0 2.94875 0 2.94875
0.000953445 0.000443499 2.9483 0 2.94875
0.00152297 0.00085376 2.94789 0 2.94874
0.00209359 0.00118214 2.94756 0 2.94874
0.00265965 0.00143724 2.9473 0 2.94874
0.00323328 0.00167084 2.94707 0 2.94874
0.00380188 0.00190795 2.94684 0 2.94874
0.0043559 0.00215559 2.94659 0 2.94875
0.00492698 0.00242624 2.94632 0 2.94875
0.00549501 0.00270336 2.94604 0 2.94874
0.00606203 0.00298224 2.94576 0 2.94874
0.00662233 0.00325602 2.94549 0 2.94874
0.00719 0.00352595 2.94522 0 2.94874
0.0077582 0.00378592 2.94496 0 2.94874
0.00832722 0.00403771 2.94471 0 2.94875
0.00889541 0.00428409 2.94446 0 2.94875
0.00946456 0.00452991 2.94422 0 2.94875
0.0100335 0.00477854 2.94397 0 2.94875
0.0105973 0.00503012 2.94372 0 2.94875
0.0111659 0.00528975 2.94346 0 2.94875
0.0117356 0.00555625 2.94319 0 2.94875
0.0123071 0.00582976 2.94292 0 2.94875
0.0128762 0.00610647 2.94264 0 2.94875
0.0134474 0.0063861 2.94236 0 2.94875
0.0140191 0.00666619 2.94208 0 2.94875
0.0145874 0.00694371 2.9418 0 2.94875
0.0151582 0.00722117 2.94152 0 2.94875
0.0157304 0.00749833 2.94125 0 2.94875
0.0163024 0.00777519 2.94097 0 2.94875
0.0168735 0.00805187 2.94069 0 2.94875
0.0174469 0.0083305 2.94042 0 2.94875
0.0180209 0.00861081 2.94014 0 2.94875
0.018593 0.00889141 2.93986 0 2.94875
0.0191665 0.00917343 2.93957 0 2.94875
0.0197413 0.0094566 2.93929 0 2.94875
0.0203097 0.009737 2.93901 0 2.94875
0.0208832 0.0100202 2.93873 0 2.94875
0.0214588 0.0103046 2.93844 0 2.94875
0.022034 0.0105891 2.93816 0 2.94875
0.0226082 0.0108735 2.93787 0 2.94875
0.0231845 0.0111589 2.93759 0 2.94875
0.0237614 0.0114449 2.9373 0 2.94875
0.0243349 0.0117292 2.93702 0 2.94875
0.024911 0.012015 2.93673 0 2.94875
0.0254889 0.0123019 2.93645 0 2.94875
0.0260656 0.0125885 2.93616 0 2.94875
0.0266421 0.0128753 2.93587 0 2.94875
0.0272209 0.0131635 2.93558 0 2.94875
0.0277991 0.0134515 2.9353 0 2.94875
0.0283764 0.0137391 2.93501 0 2.94875
0.0289552 0.0140275 2.93472 0 2.94875
0.0295349 0.0143164 2.93443 0 2.94875
0.0301102 0.0146033 2.93414 0 2.94875
0.030689 0.0148922 2.93386 0 2.94875
0.0312698 0.0151821 2.93357 0 2.94875
0.0318495 0.0154716 2.93328 0 2.94875
0.0324288 0.015761 2.93299 0 2.94875
0.0330101 0.0160515 2.9327 0 2.94875
0.0335911 0.0163419 2.93241 0 2.94875
0.0341713 0.016632 2.93212 0 2.94875
0.0347526 0.0169227 2.93183 0 2.94875
0.0353349 0.0172141 2.93153 0 2.94875
0.0359125 0.0175032 2.93124 0 2.94875
0.036494 0.0177943 2.93095 0 2.94875
0.0370774 0.0180865 2.93066 0 2.94875
0.0376597 0.0183781 2.93037 0 2.94875
0.0382417 0.0186697 2.93008 0 2.94875
0.0388254 0.0189622 2.92979 0 2.94875
0.039409 0.0192547 2.92949 0 2.94875
0.0399911 0.0195466 2.9292 0 2.94875
0.0405748 0.0198393 2.92891 0 2.94875
0.0411595 0.0201325 2.92862 0 2.94875
0.0417432 0.0204254 2.92832 0 2.94875
0.0423271 0.0207183 2.92803 0 2.94875
0.0429129 0.0210123 2.92774 0 2.94875
0.0434976 0.0213058 2.92744 0 2.94875
0.0440821 0.0215993 2.92715 0 2.94875
0.044668 0.0218935 2.92685 0 2.94875
0.0452538 0.0221877 2.92656 0 2.94875
0.0458382 0.0224812 2.92627 0 2.94875
0.0464241 0.0227756 2.92597 0 2.94875
0.047011 0.0230705 2.92568 0 2.94875
0.047597 0.023365 2.92538 0 2.94875
0.0481832 0.0236596 2.92509 0 2.94875
0.0487711 0.0239551 2.92479 0 2.94875
0.049358 0.0242502 2.9245 0 2.94875
0.0499447 0.0245453 2.9242 0 2.94875
0.0505327 0.024841 2.92391 0 2.94875
0.0511207 0.0251367 2.92361 0 2.94875
0.0517073 0.0254318 2.92332 0 2.94875
0.0522953 0.0257276 2.92302 0 2.94875
0.0528842 0.0260239 2.92272 0 2.94875
0.0534723 0.0263198 2.92243 0 2.94875
0.0540606 0.0266159 2.92213 0 2.94875
0.0546504 0.0269128 2.92184 0 2.94875
0.0552394 0.0272093 2.92154 0 2.94875
0.0558281 0.0275057 2.92124 0 2.94875
0.0564181 0.0278028 2.92095 0 2.94875
0.057008 0.0280998 2.92065 0 2.94875
0.0575968 0.0283963 2.92035 0 2.94875
0.0581869 0.0286935 2.92006 0 2.94875
0.0587776 0.028991 2.91976 0 2.94875
0.0593676 0.0292883 2.91946 0 2.94875
0.0599579 0.0295856 2.91916 0 2.94875
0.0605495 0.0298837 2.91887 0 2.94875
0.0611403 0.0301814 2.91857 0 2.94875
0.061731 0.0304791 2.91827 0 2.94875
0.0623229 0.0307773 2.91797 0 2.94875
0.0629145 0.0310755 2.91767 0 2.94875
0.0635056 0.0313735 2.91738 0 2.94875
0.0640975 0.0316719 2.91708 0 2.94875
0.0646899 0.0319705 2.91678 0 2.94875
0.0652797 0.0322679 2.91648 0 2.94875
0.0658719 0.0325664 2.91618 0 2.94875
0.0664651 0.0328655 2.91588 0 2.94875
0.0670576 0.0331643 2.91559 0 2.94875
0.0676501 0.0334631 2.91529 0 2.94875
0.0682437 0.0337625 2.91499 0 2.94875
0.068837 0.0340617 2.91469 0 2.94875
0.06943 0.0343609 2.91439 0 2.94875
0.0700237 0.0346604 2.91409 0 2.94875
0.0706177 0.03496 2.91379 0 2.94875
0.0712097 0.0352587 2.91349 0 2.94875
0.0718036 0.0355583 2.91319 0 2.94875
0.0723983 0.0358584 2.91289 0 2.94875
0.0729924 0.0361582 2.91259 0 2.94875
0.0735866 0.036458 2.91229 0 2.94875
0.074182 0.0367585 2.91199 0 2.94875
0.0747767 0.0370586 2.91169 0 2.94875
0.0753714 0.0373588 2.91139 0 2.94875
0.0759668 0.0376593 2.91109 0 2.94875
0.0765623 0.0379599 2.91079 0 2.94875
0.0771565 0.0382598 2.91049 0 2.94875
0.077752 0.0385605 2.91019 0 2.94875
0.0783482 0.0388614 2.90989 0 2.94875
0.0789438 0.0391621 2.90959 0 2.94875
0.0795396 0.0394629 2.90929 0 2.94875
0.0801365 0.0397643 2.90899 0 2.94875
0.0807327 0.0400653 2.90868 0 2.94875
0.0813289 0.0403664 2.90838 0 2.94875
0.0819259 0.0406679 2.90808 0 2.94875
0.0825228 0.0409693 2.90778 0 2.94875
0.0831191 0.0412705 2.90748 0 2.94875
0.0837163 0.0415721 2.90718 0 2.94875
0.0843138 0.0418738 2.90688 0 2.94875
0.0849109 0.0421754 2.90657 0 2.94875
0.0855082 0.0424771 2.90627 0 2.94875
0.0861064 0.0427792 2.90597 0 2.94875
0.086704 0.0430811 2.90567 0 2.94875
0.0873017 0.0433831 2.90537 0 2.94875
0.0879002 0.0436854 2.90506 0 2.94875
0.0884984 0.0439877 2.90476 0 2.94875
0.0890965 0.0442898 2.90446 0 2.94875
0.0896952 0.0445923 2.90416 0 2.94875
0.090294 0.0448948 2.90386 0 2.94875
0.0908915 0.0451967 2.90355 0 2.94875
0.0914904 0.0454993 2.90325 0 2.94875
0.0920897 0.0458022 2.90295 0 2.94875
0.0926887 0.0461048 2.90265 0 2.94875
0.0932878 0.0464076 2.90234 0 2.94875
0.0938877 0.0467108 2.90204 0 2.94875
0.0944872 0.0470137 2.90174 0 2.94875
0.0950866 0.0473167 2.90143 0 2.94875
0.0956868 0.04762 2.90113 0 2.94875
0.0962868 0.0479233 2.90083 0 2.94875
0.0968864 0.0482263 2.90052 0 2.94875
0.0974867 0.0485297 2.90022 0 2.94875
0.0980872 0.0488332 2.89992 0 2.94875
0.0986875 0.0491366 2.89961 0 2.94875
0.099288 0.0494402 2.89931 0 2.94875
0.0998891 0.049744 2.89901 0 2.94875
0.10049 0.0500477 2.8987 0 2.94875
0.101091 0.0503514 2.8984 0 2.94875
0.101692 0.0506555 2.8981 0 2.94875
0.102293 0.0509595 2.89779 0 2.94875
0.102894 0.0512634 2.89749 0 2.94875
0.103496 0.0515676 2.89718 0 2.94875
0.104098 0.0518718 2.89688 0 2.94875
0.104699 0.0521756 2.89658 0 2.94875
0.105301 0.0524799 2.89627 0 2.94875
0.105903 0.0527844 2.89597 0 2.94875
0.106505 0.0530888 2.89566 0 2.94875
0.107107 0.0533932 2.89536 0 2.94875
0.10771 0.053698 2.89505 0 2.94875
0.108312 0.0540026 2.89475 0 2.94875
0.108914 0.0543072 2.89444 0 2.94875
0.109518 0.0546122 2.89414 0 2.94875
0.11012 0.0549171 2.89383 0 2.94875
0.110723 0.0552219 2.89353 0 2.94875
0.111326 0.0555269 2.89322 0 2.94875
0.11193 0.0558321 2.89292 0 2.94875
0.112532 0.0561366 2.89261 0 2.94875
0.113135 0.0564418 2.89231 0 2.94875
0.113739 0.0567472 2.892 0 2.94875
0.114343 0.0570524 2.8917 0 2.94875
0.114946 0.0573577 2.89139 0 2.94875
0.115551 0.0576634 2.89109 0 2.94875
0.116155 0.0579689 2.89078 0 2.94875
0.116759 0.0582744 2.89048 0 2.94875
0.117363 0.0585802 2.89017 0 2.94875
0.117968 0.0588859 2.88987 0 2.94875
0.118572 0.0591914 2.88956 0 2.94875
0.119176 0.0594973 2.88925 0 2.94875
0.119781 0.0598033 2.88895 0 2.94875
0.120386 0.0601092 2.88864 0 2.94875
0.120991 0.0604152 2.88834 0 2.94875
0.121596 0.0607214 2.88803 0 2.94875
0.122201 0.0610275 2.88772 0 2.94875
0.122807 0.0613336 2.88742 0 2.94875
0.123412 0.0616401 2.88711 0 2.94875
0.124018 0.0619464 2.88681 0 2.94875
0.124623 0.0622527 2.8865 0 2.94875
0.125229 0.0625593 2.88619 0 2.94875
0.125835 0.0628658 2.88589 0 2.94875
0.126441 0.0631721 2.88558 0 2.94875
0.127047 0.0634787 2.88527 0 2.94875
0.127653 0.0637855 2.88497 0 2.94875
0.128259 0.0640922 2.88466 0 2.94875
0.128866 0.064399 2.88435 0 2.94875
0.129473 0.064706 2.88405 0 2.94875
0.130079 0.0650129 2.88374 0 2.94875
0.130686 0.0653198 2.88343 0 2.94875
0.131293 0.065627 2.88312 0 2.94875
0.1319 0.0659342 2.88282 0 2.94875
0.132507 0.0662412 2.88251 0 2.94875
0.133114 0.0665485 2.8822 0 2.94875
0.133722 0.0668558 2.8819 0 2.94875
0.134329 0.0671631 2.88159 0 2.94875
0.134936 0.0674705 2.88128 0 2.94875
0.135544 0.067778 2.88097 0 2.94875
0.136152 0.0680855 2.88067 0 2.94875
0.13676 0.068393 2.88036 0 2.94875
0.137368 0.0687008 2.88005 0 2.94875
0.137976 0.0690084 2.87974 0 2.94875
0.138584 0.0693161 2.87944 0 2.94875
0.139192 0.069624 2.87913 0 2.94875
0.139801 0.0699319 2.87882 0 2.94875
0.140409 0.0702395 2.87851 0 2.94875
0.141017 0.0705475 2.8782 0 2.94875
0.141626 0.0708555 2.8779 0 2.94875
0.142235 0.0711636 2.87759 0 2.94875
0.142843 0.0714717 2.87728 0 2.94875
0.143453 0.0717799 2.87697 0 2.94875
0.144061 0.0720881 2.87666 0 2.94875
0.144671 0.0723963 2.87636 0 2.94875
0.14528 0.0727048 2.87605 0 2.94875
0.145889 0.0730131 2.87574 0 2.94875
0.146499 0.0733214 2.87543 0 2.94875
0.147108 0.07363 2.87512 0 2.94875
0.147718 0.0739385 2.87481 0 2.94875
0.148328 0.074247 2.8745 0 2.94875
0.148937 0.0745557 2.8742 0 2.94875
0.149547 0.0748644 2.87389 0 2.94875
0.150157 0.0751731 2.87358 0 2.94875
0.150767 0.0754819 2.87327 0 2.94875
0.151378 0.0757908 2.87296 0 2.94875
0.151988 0.0760997 2.87265 0 2.94875
0.152598 0.0764085 2.87234 0 2.94875
0.153209 0.0767176 2.87203 0 2.94875
0.15382 0.0770266 2.87173 0 2.94875
0.15443 0.0773356 2.87142 0 2.94875
0.155041 0.0776448 2.87111 0 2.94875
0.155652 0.077954 2.8708 0 2.94875
0.156263 0.0782632 2.87049 0 2.94875
0.156874 0.0785724 2.87018 0 2.94875
0.157485 0.0788818 2.86987 0 2.94875
0.158096 0.0791911 2.86956 0 2.94875
0.158707 0.0795005 2.86925 0 2.94875
0.159319 0.07981 2.86894 0 2.94875
0.15993 0.0801195 2.86863 0 2.94875
0.160542 0.080429 2.86832 0 2.94875
0.161154 0.0807386 2.86801 0 2.94875
0.161765 0.0810483 2.8677 0 2.94875
0.162377 0.0813579 2.86739 0 2.94875
0.162989 0.0816677 2.86708 0 2.94875
0.163601 0.0819775 2.86677 0 2.94875
0.164213 0.0822873 2.86646 0 2.94875
0.164825 0.0825971 2.86616 0 2.94875
0.165437 0.082907 2.86585 0 2.94875
0.16605 0.0832169 2.86554 0 2.94875
0.166662 0.0835269 2.86523 0 2.94875
0.167274 0.0838369 2.86492 0 2.94875
0.167887 0.084147 2.86461 0 2.94875
0.1685 0.084457 2.8643 0 2.94875
0.169112 0.0847672 2.86399 0 2.94875
0.169725 0.0850774 2.86367 0 2.94875
0.170338 0.0853876 2.86336 0 2.94875
0.170951 0.0856978 2.86305 0 2.94875
0.171564 0.0860081 2.86274 0 2.94875
0.172177 0.0863184 2.86243 0 2.94875
0.17279 0.0866288 2.86212 0 2.94875
0.173403 0.0869392 2.86181 0 2.94875
0.174016 0.0872496 2.8615 0 2.94875
0.174629 0.0875601 2.86119 0 2.94875
0.175243 0.0878705 2.86088 0 2.94875
0.175856 0.0881811 2.86057 0 2.94875
0.17647 0.0884917 2.86026 0 2.94875
0.177083 0.0888022 2.85995 0 2.94875
0.177697 0.0891128 2.85964 0 2.94875
0.178311 0.0894235 2.85933 0 2.94875
0.178924 0.0897342 2.85902 0 2.94875
0.179538 0.0900449 2.85871 0 2.94875
0.180152 0.0903556 2.8584 0 2.94875
0.180766 0.0906663 2.85809 0 2.94875
0.181379 0.0909771 2.85778 0 2.94875
0.181993 0.0912878 2.85746 0 2.94875
0.182607 0.0915984 2.85715 0 2.94875
0.18322 0.0919091 2.85684 0 2.94875
0.183834 0.0922197 2.85653 0 2.94875
0.184448 0.0925304 2.85622 0 2.94875
0.185061 0.0928409 2.85591 0 2.94875
0.185674 0.0931514 2.8556 0 2.94875
0.186288 0.093462 2.85529 0 2.94875
0.186901 0.0937723 2.85498 0 2.94875
0.187514 0.0940827 2.85467 0 2.94875
0.188127 0.0943932 2.85436 0 2.94875
0.18874 0.0947033 2.85405 0 2.94875
0.189353 0.0950137 2.85374 0 2.94875
0.189966 0.0953241 2.85343 0 2.94875
0.190579 0.0956345 2.85312 0 2.94875
0.191192 0.0959448 2.85281 0 2.94875
0.191805 0.0962551 2.8525 0 2.94875
0.192418 0.0965654 2.85219 0 2.94875
0.19303 0.0968755 2.85188 0 2.94875
0.193643 0.0971858 2.85157 0 2.94875
0.194256 0.0974961 2.85126 0 2.94875
0.194868 0.0978061 2.85095 0 2.94875
0.195481 0.0981163 2.85064 0 2.94875
0.196093 0.0984265 2.85033 0 2.94875
0.196706 0.0987368 2.85002 0 2.94875
0.197319 0.099047 2.84971 0 2.94875
0.197932 0.0993572 2.8494 0 2.94875
0.198544 0.0996674 2.84909 0 2.94875
0.199157 0.0999775 2.84878 0 2.94875
0.199769 0.100288 2.84846 0 2.94875
0.200382 0.100598 2.84815 0 2.94875
0.200994 0.100908 2.84784 0 2.94875
0.201607 0.101218 2.84753 0 2.94875
0.20222 0.101528 2.84722 0 2.94875
0.202832 0.101838 2.84691 0 2.94875
0.203445 0.102148 2.8466 0 2.94875
0.204057 0.102459 2.84629 0 2.94875
0.20467 0.102769 2.84598 0 2.94875
0.205282 0.103079 2.84567 0 2.94875
0.205895 0.103389 2.84536 0 2.94875
0.206508 0.103699 2.84505 0 2.94875
0.20712 0.104009 2.84474 0 2.94875
0.207732 0.104319 2.84443 0 2.94875
0.208345 0.10463 2.84412 0 2.94875
0.208957 0.10494 2.84381 0 2.94875
0.20957 0.10525 2.8435 0 2.94875
0.210182 0.10556 2.84319 0 2.94875
0.210795 0.10587 2.84288 0 2.94875
0.211407 0.10618 2.84257 0 2.94875
0.21202 0.10649 2.84226 0 2.94875
0.212633 0.106801 2.84195 0 2.94875
0.213245 0.107111 2.84164 0 2.94875
0.213858 0.107421 2.84133 0 2.94875
0.21447 0.107731 2.84102 0 2.94875
0.215083 0.108041 2.84071 0 2.94875
0.215695 0.108351 2.8404 0 2.94875
0.216308 0.108662 2.84009 0 2.94875
0.21692 0.108972 2.83978 0 2.94875
0.217533 0.109282 2.83947 0 2.94875
0.218145 0.109592 2.83916 0 2.94875
0.218758 0.109902 2.83885 0 2.94875
0.219371 0.110212 2.83854 0 2.94875
0.219983 0.110523 2.83823 0 2.94875
0.220596 0.110833 2.83792 0 2.94875
0.221209 0.111143 2.83761 0 2.94875
0.221822 0.111454 2.8373 0 2.94875
0.222434 0.111764 2.83699 0 2.94875
0.223047 0.112074 2.83668 0 2.94875
0.22366 0.112384 2.83637 0 2.94875
0.224273 0.112695 2.83606 0 2.94875
0.224885 0.113005 2.83575 0 2.94875
0.225498 0.113315 2.83544 0 2.94875
0.226111 0.113625 2.83513 0 2.94875
0.226723 0.113936 2.83482 0 2.94875
0.227336 0.114246 2.83451 0 2.94875
0.227949 0.114556 2.8342 0 2.94875
0.228562 0.114867 2.83389 0 2.94875
0.229175 0.115177 2.83358 0 2.94875
0.229788 0.115487 2.83327 0 2.94875
0.230401 0.115798 2.83295 0 2.94875
0.231014 0.116108 2.83264 0 2.94875
0.231627 0.116419 2.83233 0 2.94875
0.23224 0.116729 2.83202 0 2.94875
0.232853 0.117039 2.83171 0 2.94875
0.233466 0.11735 2.8314 0 2.94875
0.234079 0.11766 2.83109 0 2.94875
0.234692 0.117971 2.83078 0 2.94875
0.235305 0.118281 2.83047 0 2.94875
0.235918 0.118592 2.83016 0 2.94875
0.236532 0.118902 2.82985 0 2.94875
0.237145 0.119213 2.82954 0 2.94875
0.237758 0.119523 2.82923 0 2.94875
0.238371 0.119834 2.82892 0 2.94875
0.238985 0.120144 2.82861 0 2.94875
0.239598 0.120455 2.8283 0 2.94875
0.240211 0.120766 2.82799 0 2.94875
0.240824 0.121076 2.82768 0 2.94875
0.241438 0.121387 2.82737 0 2.94875
0.242051 0.121697 2.82706 0 2.94875
0.242665 0.122008 2.82675 0 2.94875
0.243278 0.122319 2.82643 0 2.94875
0.243892 0.122629 2.82612 0 2.94875
0.244505 0.12294 2.82581 0 2.94875
0.245119 0.123251 2.8255 0 2.94875
0.245733 0.123561 2.82519 0 2.94875
0.246346 0.123872 2.82488 0 2.94875
0.24696 0.124183 2.82457 0 2.94875
0.247574 0.124494 2.82426 0 2.94875
0.248187 0.124804 2.82395 0 2.94875
0.248801 0.125115 2.82364 0 2.94875
0.249415 0.125426 2.82333 0 2.94875
0.250029 0.125737 2.82302 0 2.94875
0.250642 0.126048 2.82271 0 2.94875
0.251256 0.126358 2.82239 0 2.94875
0.25187 0.126669 2.82208 0 2.94875
0.252484 0.12698 2.82177 0 2.94875
0.253098 0.127291 2.82146 0 2.94875
0.253712 0.127602 2.82115 0 2.94875
0.254326 0.127913 2.82084 0 2.94875
0.25494 0.128224 2.82053 0 2.94875
0.255555 0.128535 2.82022 0 2.94875
0.256169 0.128846 2.81991 0 2.94875
0.256783 0.129157 2.8196 0 2.94875
0.257397 0.129468 2.81929 0 2.94875
0.258011 0.129779 2.81897 0 2.94875
0.258625 0.13009 2.81866 0 2.94875
0.259239 0.130401 2.81835 0 2.94875
0.259854 0.130712 2.81804 0 2.94875
0.260468 0.131023 2.81773 0 2.94875
0.261083 0.131334 2.81742 0 2.94875
0.261697 0.131646 2.81711 0 2.94875
0.262312 0.131957 2.8168 0 2.94875
0.262926 0.132268 2.81649 0 2.94875
0.263541 0.132579 2.81617 0 2.94875
0.264155 0.132891 2.81586 0 2.94875
0.26477 0.133202 2.81555 0 2.94875
0.265385 0.133513 2.81524 0 2.94875
0.265999 0.133824 2.81493 0 2.94875
0.266614 0.134135 2.81462 0 2.94875
0.267229 0.134447 2.81431 0 2.94875
0.267843 0.134758 2.814 0 2.94875
0.268458 0.13507 2.81368 0 2.94875
0.269073 0.135381 2.81337 0 2.94875
0.269688 0.135692 2.81306 0 2.94875
0.270303 0.136004 2.81275 0 2.94875
0.270918 0.136315 2.81244 0 2.94875
0.271533 0.136627 2.81213 0 2.94875
0.272148 0.136938 2.81182 0 2.94875
0.272763 0.13725 2.8115 0 2.94875
0.273379 0.137561 2.81119 0 2.94875
0.273994 0.137873 2.81088 0 2.94875
0.274609 0.138184 2.81057 0 2.94875
0.275224 0.138496 2.81026 0 2.94875
0.275839 0.138807 2.80995 0 2.94875
0.276455 0.139119 2.80963 0 2.94875
0.27707 0.139431 2.80932 0 2.94875
0.277686 0.139742 2.80901 0 2.94875
0.278301 0.140054 2.8087 0 2.94875
0.278917 0.140366 2.80839 0 2.94875
0.279532 0.140677 2.80808 0 2.94875
0.280148 0.140989 2.80776 0 2.94875
0.280763 0.141301 2.80745 0 2.94875
0.281379 0.141613 2.80714 0 2.94875
0.281995 0.141924 2.80683 0 2.94875
0.28261 0.142236 2.80652 0 2.94875
0.283226 0.142548 2.80621 0 2.94875
0.283842 0.14286 2.80589 0 2.94875
0.284458 0.143172 2.80558 0 2.94875
0.285074 0.143484 2.80527 0 2.94875
0.28569 0.143796 2.80496 0 2.94875
0.286306 0.144107 2.80465 0 2.94875
0.286922 0.144419 2.80433 0 2.94875
0.287538 0.144731 2.80402 0 2.94875
0.288154 0.145043 2.80371 0 2.94875
0.28877 0.145355 2.8034 0 2.94875
0.289386 0.145667 2.80309 0 2.94875
0.290002 0.145979 2.80277 0 2.94875
0.290619 0.146291 2.80246 0 2.94875
0.291235 0.146604 2.80215 0 2.94875
0.291851 0.146916 2.80184 0 2.94875
0.292468 0.147228 2.80153 0 2.94875
0.293084 0.14754 2.80121 0 2.94875
0.293701 0.147852 2.8009 0 2.94875
0.294317 0.148164 2.80059 0 2.94875
0.294933 0.148476 2.80028 0 2.94875
0.29555 0.148789 2.79996 0 2.94875
0.296167 0.149101 2.79965 0 2.94875
0.296783 0.149413 2.79934 0 2.94875
0.2974 0.149726 2.79903 0 2.94875
0.298017 0.150038 2.79872 0 2.94875
0.298633 0.15035 2.7984 0 2.94875
0.29925 0.150662 2.79809 0 2.94875
0.299867 0.150975 2.79778 0 2.94875
0.300484 0.151287 2.79747 0 2.94875
0.301101 0.1516 2.79715 0 2.94875
0.301718 0.151912 2.79684 0 2.94875
0.302335 0.152225 2.79653 0 2.94875
0.302952 0.152537 2.79622 0 2.94875
0.303569 0.152849 2.7959 0 2.94875
0.304186 0.153162 2.79559 0 2.94875
0.304803 0.153474 2.79528 0 2.94875
0.30542 0.153787 2.79497 0 2.94875
0.306038 0.1541 2.79465 0 2.94875
0.306655 0.154412 2.79434 0 2.94875
0.307272 0.154725 2.79403 0 2.94875
0.307889 0.155037 2.79372 0 2.94875
0.308507 0.15535 2.7934 0 2.94875
0.309124 0.155662 2.79309 0 2.94875
0.309742 0.155975 2.79278 0 2.94875
0.310359 0.156288 2.79247 0 2.94875
0.310977 0.1566 2.79215 0 2.94875
0.311594 0.156913 2.79184 0 2.94875
0.312212 0.157226 2.79153 0 2.94875
0.312829 0.157538 2.79122 0 2.94875
0.313447 0.157851 2.7909 0 2.94875
0.314065 0.158164 2.79059 0 2.94875
0.314682 0.158477 2.79028 0 2.94875
0.3153 0.15879 2.78996 0 2.94875
0.315918 0.159103 2.78965 0 2.94875
0.316536 0.159417 2.78934 0 2.94875
0.317153 0.159731 2.78902 0 2.94875
0.317771 0.160045 2.78871 0 2.94875
0.318389 0.160359 2.78839 0 2.94875
0.319007 0.160673 2.78808 0 2.94875
0.319625 0.160988 2.78777 0 2.94875
0.320243 0.161303 2.78745 0 2.94875
0.320861 0.161617 2.78714 0 2.94875
0.321479 0.161931 2.78682 0 2.94875
0.322097 0.162245 2.78651 0 2.94875
0.322716 0.162558 2.7862 0 2.94875
0.323334 0.16287 2.78588 0 2.94875
0.323952 0.163179 2.78557 0 2.94875
0.32457 0.163487 2.78527 0 2.94875
0.325188 0.163791 2.78496 0 2.94875
0.325807 0.164092 2.78466 0 2.94875
0.326425 0.164388 2.78437 0 2.94875
0.327043 0.164678 2.78408 0 2.94875
0.327662 0.164963 2.78379 0 2.94875
